timestamp,emg1,emg2,emg3,emg4,emg5,emg6,emg7,emg8
1495014828340479,-2,-17,0,-19,-3,-18,8,4
1495014828340479,-6,-4,-7,8,1,-9,0,-1
1495014828341152,1,0,-8,-3,8,12,-6,-2
1495014828341152,2,1,1,9,-1,9,-5,-5
1495014828343485,0,12,1,-16,-12,-12,3,3
1495014828343485,0,1,-2,3,3,-2,1,2
1495014828344159,-4,-11,-5,10,10,8,-1,1
1495014828344159,-1,-7,2,-5,0,6,-5,-6
1495014828350396,-2,3,-1,-4,-8,-11,3,1
1495014828350396,-1,3,2,-9,-3,-8,2,-1
1495014828357571,0,4,-5,13,1,2,-5,-2
1495014828357571,-1,-11,2,-15,-3,4,-5,-3
1495014828372585,-2,-3,3,12,-2,-5,3,0
1495014828372585,-3,-4,0,-7,-7,-5,1,1
1495014828381652,0,-5,-6,13,2,3,-4,-2
1495014828381652,-3,-5,2,-5,-8,-3,-4,-6
1495014828387564,6,15,1,-2,1,-7,0,0
1495014828387564,-4,6,-1,1,1,1,0,0
1495014828413343,-7,-22,-1,-3,3,1,-4,-4
1495014828413343,0,10,-1,1,-3,2,-3,-3
1495014828414345,-2,-3,-1,-2,3,-3,2,0
1495014828414345,4,11,-2,-2,-2,1,1,0
1495014828425373,7,0,-7,2,0,0,-5,0
1495014828425373,-19,-7,-1,-4,-2,1,-2,-2
1495014828466484,0,4,1,3,4,4,-4,-1
1495014828466484,5,0,-2,4,3,16,-9,-6
1495014828479523,-2,4,6,-5,-10,-17,8,3
1495014828479523,-3,-17,-4,-11,4,-4,-1,1
1495014828480521,-3,10,-5,4,-2,-1,-1,0
1495014828480521,-1,-5,-2,9,2,13,-8,-5
1495014828480521,-2,-2,-1,-19,-6,-15,3,-1
1495014828480521,1,-5,1,9,-3,-4,2,2
1495014828481529,-2,4,-4,3,4,3,3,1
1495014828481529,3,13,0,-1,3,10,-9,-7
1495014828485541,-4,-2,4,-13,-8,-6,4,1
1495014828485541,-3,2,0,4,-2,-8,2,-1
1495014828499718,-3,-19,-5,-3,1,-1,-3,-3
1495014828499718,-4,-15,-2,2,3,7,-4,-5
1495014828506798,3,11,6,0,-6,-9,2,3
1495014828506798,-3,5,-4,-3,1,-4,0,0
1495014828514621,3,6,-3,1,-1,1,-1,-1
1495014828514621,4,0,0,0,2,6,-2,-1
1495014828537879,-7,-3,2,2,-7,-8,1,0
1495014828537879,-4,-5,-3,-6,-3,-4,-4,-2
1495014828538677,1,5,-2,7,6,3,-1,-1
1495014828538677,-3,-12,-1,0,-3,1,-1,0
1495014828560879,3,3,-2,-1,1,-2,1,1
1495014828560879,0,9,3,8,-4,-3,-2,-1
1495014828561739,-2,-9,-7,-4,-3,-3,-4,-2
1495014828561739,-10,-4,0,-9,1,3,-2,-3
1495014828583011,-1,4,0,7,-3,-5,3,-1
1495014828583011,-3,4,-3,1,-2,-1,-1,0
1495014828583797,0,-19,-4,-4,-5,-3,-4,-3
1495014828583797,2,2,-2,5,2,-1,-3,0
1495014828597850,-4,-2,0,-9,-6,-5,-1,-2
1495014828597850,2,6,-1,3,0,-3,1,-2
1495014828598846,-2,-6,0,2,-1,0,-3,1
1495014828598846,14,14,2,-5,-4,0,-2,-3
1495014828620896,-22,-3,2,-6,3,-6,-2,-3
1495014828620896,-2,-39,-4,-6,-5,-3,1,0
1495014828620896,-1,15,-1,3,3,0,-3,-3
1495014828620896,2,-10,2,-4,-1,0,-2,-3
1495014828635135,9,14,0,1,0,-1,-2,-1
1495014828635135,0,11,-2,-2,0,-1,2,-1
1495014828635939,-3,-10,-2,-11,-3,3,-2,0
1495014828635939,-1,5,2,0,-2,-2,0,-1
1495014828673236,3,-5,-9,6,1,2,2,1
1495014828673236,-3,3,-1,-4,0,1,-3,0
1495014828674091,0,-12,0,1,-2,1,0,0
1495014828674091,-1,4,3,-2,-3,-5,-3,-1
1495014828681061,3,-7,-3,2,-4,-4,-2,-2
1495014828681061,-3,-1,-4,10,-3,-2,0,0
1495014828681061,0,4,-2,-13,6,6,-1,-1
1495014828681061,-7,-16,-1,5,0,-1,-2,-2
1495014828695100,-1,-7,1,-3,-4,-3,0,-1
1495014828695100,3,6,1,7,-1,-1,-2,-1
1495014828696100,7,17,0,4,-1,0,-1,1
1495014828696100,-3,-1,-4,-4,-5,-2,-1,0
1495014828718321,-2,-13,-2,-4,-1,-1,0,-1
1495014828718321,1,24,0,-14,-3,-3,-1,-2
1495014828719160,-7,-30,-1,3,-1,-4,-2,-4
1495014828719160,0,-3,-4,-2,-3,1,2,0
1495014828740226,2,1,1,-1,0,-2,-2,0
1495014828740226,-1,4,1,-4,-2,1,0,0
1495014828747459,3,28,1,12,-1,-6,-3,-3
1495014828747459,-7,-15,2,-16,7,8,2,4
1495014828754301,0,-4,1,-6,0,0,-2,-1
1495014828754301,-10,-22,2,-1,-3,-3,-1,-1
1495014828762277,2,12,2,8,-1,-1,-3,-2
1495014828762277,3,5,-3,1,-4,-7,0,-2
1495014828778319,2,11,-5,-11,-4,-1,-2,0
1495014828778319,-3,3,1,5,4,-1,-1,-2
1495014828779318,-2,-11,-3,-10,2,1,-3,-2
1495014828779318,-1,-11,-3,-7,-7,-6,-3,-3
1495014828801388,5,-1,0,-9,0,4,2,0
1495014828801388,3,-2,-2,0,-3,-6,-4,-3
1495014828801388,-4,2,-2,9,4,3,-2,-1
1495014828801388,-1,13,5,-8,-3,-1,0,0
1495014828814466,1,10,-1,19,3,-1,-3,-1
1495014828814466,-1,-31,-3,4,10,12,5,2
1495014828822433,-3,-2,-2,-4,1,4,-2,-1
1495014828822433,-1,5,1,6,-5,-10,-2,-3
1495014828838715,0,-1,-5,0,-1,1,-1,-1
1495014828838715,12,25,3,1,-2,-2,-1,2
1495014828838715,-14,-7,-1,-6,4,1,1,11
1495014828838715,1,13,10,15,-3,-3,1,10
1495014828860539,-11,-24,0,3,-1,1,-5,-40
1495014828860539,1,-7,-8,-8,-1,0,-3,-2
1495014828861538,6,10,-3,-2,-8,1,3,-2
1495014828861538,10,20,3,-2,5,-4,4,14
1495014828874752,4,11,2,0,3,1,0,20
1495014828874752,-12,-6,4,-6,-6,-4,-5,-12
1495014828882645,-8,-29,-3,7,2,0,-5,-24
1495014828882645,-7,0,-6,-23,-13,-5,-4,-3
1495014828898647,11,10,1,18,0,-1,3,4
1495014828898647,10,8,-6,-16,9,0,1,9
1495014828898647,-22,4,-1,9,-5,-2,0,5
1495014828898647,3,-19,-3,9,-2,-4,-1,6
1495014828920876,-9,-29,-4,-22,-2,-3,-5,-10
1495014828920876,-2,1,4,4,-6,-4,-2,1
1495014828921696,13,18,-1,8,1,0,-4,-3
1495014828921696,7,19,2,-14,-4,1,5,-4
1495014828934732,0,-8,-4,11,-18,-11,-5,22
1495014828934732,17,7,1,-22,9,-6,-9,-29
1495014828949781,-57,-49,-3,-2,1,7,-1,-6
1495014828949781,-1,5,0,9,-2,-3,-1,0
1495014828958805,-6,13,-1,-6,0,-2,0,5
1495014828958805,9,15,6,8,-5,1,3,10
1495014828959801,20,14,-1,7,4,5,4,24
1495014828959801,-4,-29,-5,-19,2,-2,0,-19
1495014828981081,-4,19,5,3,5,5,-4,-18
1495014828981081,-13,-40,-2,3,-5,-2,-6,-21
1495014828981866,11,4,-1,3,-3,0,-1,-1
1495014828981866,2,6,-1,-14,-1,-2,1,10
1495014828994092,42,43,-3,7,18,10,8,27
1495014828994092,-49,-41,-8,17,14,7,1,13
1495014829002959,-14,-19,1,-26,1,-6,-5,-35
1495014829002959,-3,-1,4,-5,-7,-8,-1,9
1495014829018018,-4,-1,-5,4,-15,-7,-1,-20
1495014829018018,27,43,-3,-7,-7,-2,7,30
1495014829019969,-4,-15,-9,-3,19,8,-3,2
1495014829019969,-5,3,3,12,-9,-6,-6,-24
1495014829041028,-28,-53,-5,-6,4,5,-2,-3
1495014829041028,-4,4,-4,0,-17,0,-2,-17
1495014829042019,16,24,-1,2,-6,-3,4,12
1495014829042019,12,6,1,-1,2,1,3,15
1495014829054227,-10,25,-5,-2,-5,-3,-3,-5
1495014829054227,-6,-19,1,-1,-2,-4,-2,-8
1495014829063083,1,-49,-3,3,6,10,-2,-7
1495014829063083,-9,-10,-5,0,1,-2,0,10
1495014829078126,-3,13,0,9,-5,-6,-3,-9
1495014829078126,18,27,4,1,-3,-6,2,4
1495014829080119,9,18,2,-27,14,10,-2,10
1495014829080119,7,10,1,10,6,4,6,11
1495014829101174,-9,-16,-1,32,11,7,3,33
1495014829101174,-34,-28,-3,-29,-18,-15,-18,-42
1495014829102181,1,-54,2,2,-13,-15,-7,-46
1495014829102181,-1,12,-3,-36,14,7,3,9
1495014829123416,13,26,15,-1,-5,-3,4,-13
1495014829123416,20,59,-15,6,-8,-2,-1,41
1495014829124236,6,-35,0,25,7,13,11,43
1495014829124236,10,15,-7,11,-9,-4,-11,-31
1495014829138276,-36,-37,-2,-20,0,0,-9,-33
1495014829138276,-32,-54,7,6,-5,1,2,19
1495014829139284,-6,-2,3,-17,-12,-13,-7,-43
1495014829139284,0,4,-7,15,3,-3,12,9
1495014829160549,33,4,0,17,7,9,7,35
1495014829160549,10,56,-8,-75,18,19,7,18
1495014829162336,12,24,-6,21,-3,2,-4,-19
1495014829162336,-10,-19,10,-20,-22,-19,-17,4
1495014829183400,-24,-14,1,-2,-15,-23,-1,-67
1495014829183400,38,27,1,6,18,2,3,10
1495014829184396,-13,38,21,5,-9,4,5,30
1495014829184396,-19,-3,-3,99,3,8,22,53
1495014829198431,37,33,-13,-104,35,25,-13,19
1495014829198431,-34,-108,33,56,-7,-10,-12,-86
1495014829199435,13,55,-11,-8,-10,-5,-7,6
1495014829199435,-20,-7,7,26,-16,-8,1,-19
1495014829220490,2,9,-3,35,-7,4,11,55
1495014829220490,9,17,-4,33,25,14,13,27
1495014829222494,-7,-7,-3,-37,-3,8,-10,20
1495014829222494,-14,-18,12,-12,-10,-16,-8,22
1495014829242548,-24,-81,-7,-8,0,-6,13,-82
1495014829242548,25,67,-1,-8,-5,7,-14,-90
1495014829244554,-58,-31,-5,33,-12,-13,-10,13
1495014829244554,51,66,-1,-51,5,2,13,38
1495014829257588,3,-4,-4,-14,-15,-4,12,37
1495014829257588,-5,-41,-6,-3,11,-9,-9,51
1495014829264607,-9,-7,-13,26,9,-3,12,-30
1495014829264607,20,6,-6,-43,-3,10,0,27
1495014829280684,-45,59,1,57,-10,5,-4,-74
1495014829280684,44,-78,-4,30,-3,-10,-14,6
1495014829281686,-29,61,3,-89,3,34,0,31
1495014829281686,-13,-124,9,63,-8,-36,-13,-61
1495014829302707,61,-12,-3,11,3,-18,2,27
1495014829302707,-11,61,-16,29,-66,-19,14,22
1495014829304714,75,65,1,-20,58,24,4,27
1495014829304714,-7,30,10,-45,3,-1,-9,-34
1495014829318751,-54,15,-3,36,-5,0,-29,-16
1495014829318751,20,23,11,-68,-3,2,26,-10
1495014829324896,66,-50,-37,34,-16,-21,-15,4
1495014829324896,-82,37,13,-30,-8,10,18,77
1495014829341122,8,-56,8,54,26,11,0,44
1495014829341122,-50,14,9,-28,-16,-35,-27,-69
1495014829342933,-9,-86,4,19,-17,-14,11,17
1495014829342933,2,61,3,14,-2,-3,-18,-41
1495014829363180,29,-35,-8,-40,-8,11,19,44
1495014829363180,-14,35,3,23,20,17,22,51
1495014829364874,27,9,-11,3,13,25,-8,10
1495014829364874,22,-9,-12,-81,-14,-23,-8,-62
1495014829377246,-1,-13,20,82,11,-1,1,55
1495014829377246,11,2,-4,-73,7,5,-12,-3
1495014829385012,-13,17,-23,82,-14,-5,5,-15
1495014829385012,88,76,5,15,20,17,-2,-39
1495014829401301,-90,-75,2,-81,-42,-20,-10,-41
1495014829401301,0,-128,15,-48,15,-17,-7,67
1495014829402977,-11,99,-12,46,-27,-27,-10,-6
1495014829402977,18,-24,-3,-26,14,8,18,75
1495014829423379,-7,65,-13,18,6,1,-20,-103
1495014829423379,45,71,-19,23,-7,14,9,15
1495014829425033,-44,-26,0,-16,-6,-10,-5,30
1495014829425033,26,39,28,34,-5,6,15,64
1495014829446234,-27,-33,-18,-68,23,12,-8,35
1495014829446234,-67,-114,10,43,-27,-12,-35,75
1495014829447096,99,63,13,-12,26,-2,-24,-128
1495014829447096,-122,-128,19,20,-38,-14,21,68
1495014829459382,37,98,-20,-57,-28,-21,2,84
1495014829459382,32,7,-13,59,39,7,25,37
1495014829468152,3,63,-5,48,13,24,7,63
1495014829468152,90,-90,4,38,-11,6,-38,85
1495014829483387,-57,-9,7,-24,27,7,8,-105
1495014829483387,-4,-20,1,17,-15,13,14,84
1495014829485197,14,-28,2,-7,-13,-13,17,55
1495014829485197,-10,54,-1,3,-9,-23,-23,-43
1495014829505435,46,35,1,5,5,8,1,35
1495014829505435,-1,-14,0,-1,0,0,6,-57
1495014829507263,-32,-31,2,-14,-15,5,23,25
1495014829507263,49,1,-30,13,42,29,10,-6
1495014829519342,-62,-30,18,20,3,12,17,-29
1495014829519342,51,56,14,-20,-2,-27,-31,-34
1495014829528318,-3,-56,-14,6,0,-11,-8,44
1495014829528318,-96,-45,8,-50,-36,-31,18,-19
1495014829543536,42,41,-25,32,23,27,6,71
1495014829543536,-4,37,-9,29,-11,5,7,4
1495014829544355,-17,23,5,-94,23,15,-8,-42
1495014829544355,10,46,-15,-48,8,13,13,-6
1495014829565466,-10,-92,-9,33,-27,-21,-38,11
1495014829565466,-14,18,-14,46,-11,-5,-8,11
1495014829567416,-63,-99,8,-81,16,14,19,-4
1495014829567416,83,93,-21,41,-18,-22,-5,6
1495014829579498,11,-85,14,29,23,10,25,123
1495014829579498,103,105,-30,-15,-14,4,-26,-35
1495014829588471,-71,-28,21,-8,-17,-34,-39,-1
1495014829588471,39,70,0,16,29,25,-2,40
1495014829603509,74,33,-8,0,-22,-9,14,73
1495014829603509,-19,-46,-23,6,16,-3,15,38
1495014829604513,105,97,20,52,-18,1,-20,10
1495014829604513,-79,-128,0,3,12,4,13,46
1495014829625800,52,90,16,-82,5,-5,-21,-83
1495014829625800,-128,-128,24,-86,-4,-18,-15,-107
1495014829627573,13,121,6,36,-14,-9,-6,61
1495014829627573,12,-7,-1,61,-20,-2,15,44
1495014829648655,41,62,-21,6,-4,-4,5,59
1495014829648655,-58,-11,16,-33,35,44,44,71
1495014829649641,38,10,0,25,-35,3,-12,-128
1495014829649641,-17,-74,16,-34,1,-14,7,14
1495014829663669,-38,22,7,77,4,-14,-26,-68
1495014829663669,9,-48,-4,32,-23,-27,-35,-5
1495014829664682,5,-6,-1,16,0,8,11,42
1495014829664682,1,79,-1,19,-6,13,-7,-6
1495014829685953,-21,8,-4,-50,-3,5,16,-37
1495014829685953,-4,-85,6,5,-17,-15,-3,11
1495014829686730,33,65,14,-17,22,27,38,78
1495014829686730,-24,-64,1,-24,-8,-33,-42,-126
1495014829709010,48,89,-1,-12,5,0,-4,-27
1495014829709010,-12,-13,5,23,5,17,8,54
1495014829709793,-59,-59,1,83,-22,-9,9,-49
1495014829709793,51,115,-17,-95,64,34,40,70
1495014829722827,-10,-102,-12,66,-6,1,5,-88
1495014829722827,-26,127,-18,-39,-19,10,-7,65
1495014829724831,-67,-128,27,33,2,-27,-27,34
1495014829724831,9,96,-1,12,6,12,31,62
1495014829745887,30,66,-11,96,21,7,8,77
1495014829745887,69,46,8,-21,-6,5,9,28
1495014829746891,-13,-6,16,-32,6,2,-15,-11
1495014829746891,1,-84,-10,10,-17,-5,-21,10
1495014829767977,-30,4,-2,-47,-29,-40,7,-48
1495014829767977,8,-28,-22,48,-2,-8,-9,24
1495014829769951,42,-35,-8,-29,20,34,1,61
1495014829769951,-74,49,-7,21,-7,-9,7,2
1495014829782016,28,-126,7,-39,-17,-6,-4,70
1495014829782016,-20,45,15,-13,10,-15,-14,-106
1495014829789036,12,-4,-11,-20,-18,8,27,-6
1495014829789036,-1,32,-5,74,18,-27,-32,-44
1495014829806232,60,49,9,-11,20,38,9,125
1495014829806232,-23,-76,1,38,-61,-29,-11,-100
1495014829807052,-28,-39,26,-18,9,-39,-27,47
1495014829807052,-6,-23,0,-41,-29,-10,-7,10
1495014829828106,-16,85,-10,-8,-16,-16,-15,-20
1495014829828106,74,127,-23,58,9,37,29,127
1495014829829110,-42,-87,-5,-8,-11,-1,-19,-117
1495014829829110,-22,38,4,-42,16,-21,10,-34
1495014829842440,-54,-128,-4,-5,11,9,-22,-8
1495014829842440,21,127,-11,-6,13,18,16,25
1495014829849415,57,127,-8,9,16,7,-7,46
1495014829849415,-86,-128,-1,-9,-8,21,11,-28
1495014829866207,8,58,-11,-21,-39,-31,3,78
1495014829866207,48,38,-3,24,83,-5,-13,68
1495014829867211,-52,-43,5,4,-32,-21,-4,-78
1495014829867211,32,8,-15,26,-31,-3,-17,88
1495014829888541,-17,-15,-2,-41,7,1,-4,50
1495014829888541,50,57,-31,70,-34,16,26,50
1495014829890273,-53,-40,24,-103,112,44,29,90
1495014829890273,-5,16,-5,45,-48,-41,-24,-77
1495014829902556,-20,51,-8,53,-33,-5,2,-12
1495014829902556,5,9,7,-18,-26,-37,-30,-75
1495014829910454,48,-13,-13,-8,17,35,11,23
1495014829910454,42,92,4,10,-3,13,6,27
1495014829925641,0,-112,-6,-3,27,-15,-4,-32
1495014829925641,-57,12,-5,-13,5,19,-14,-35
1495014829927370,22,10,-19,7,-44,-30,-13,97
1495014829927370,20,49,-12,-25,20,8,4,23
1495014829948609,-3,-29,18,14,-32,-10,16,35
1495014829948609,26,-30,-6,-15,27,15,-9,41
1495014829949431,-19,-111,22,61,-40,-34,13,10
1495014829949431,13,54,3,-11,-22,-48,-36,-87
1495014829962626,-6,124,-8,-17,1,5,-17,-73
1495014829962626,-20,-128,1,44,-18,-1,15,-2
1495014829969699,27,127,5,-55,-40,-13,-7,28
1495014829969699,39,-31,-13,-13,72,30,9,55
1495014829985735,18,66,4,-10,-21,18,2,7
1495014829985735,-57,-92,23,-83,-2,3,12,-21
1495014829987532,34,-14,-12,48,-34,-11,-19,-90
1495014829987532,-33,-82,-5,0,-15,-10,5,-25
1495014830015745,-17,19,-11,-51,4,3,-3,-2
1495014830015745,26,69,-4,18,34,23,38,106
1495014830017613,-18,-8,-4,11,1,1,-14,-29
1495014830017613,-27,34,6,-8,-17,-8,-2,-115
1495014830021801,60,-18,3,20,27,-1,-38,43
1495014830021801,9,48,-8,19,25,47,50,58
1495014830030648,-53,21,18,-29,-38,-42,-4,12
1495014830030648,-8,33,-11,51,9,8,30,91
1495014830045691,-20,-27,4,-25,12,-10,-27,-80
1495014830045691,20,91,-1,-8,11,5,-16,-17
1495014830047693,-35,-77,9,-16,0,3,16,44
1495014830047693,29,93,-7,1,-23,4,6,11
1495014830067791,-27,-84,-6,55,29,15,25,86
1495014830067791,20,-16,7,9,-25,-27,-32,-59
1495014830069759,-8,88,-17,-21,16,9,0,-35
1495014830069759,-7,-128,9,-7,-21,11,4,34
1495014830082000,4,33,2,46,23,22,10,-7
1495014830082000,16,30,-5,24,-14,-4,-13,2
1495014830090814,25,-58,-6,8,8,24,18,79
1495014830090814,-51,-110,-5,-63,-35,-31,0,-20
1495014830106029,31,83,2,-25,-4,-20,-17,-33
1495014830106029,-69,-102,13,18,18,0,19,58
1495014830106857,111,90,7,0,1,-11,-38,-58
1495014830106857,-47,91,-7,7,17,14,1,77
1495014830127907,-28,-128,2,-11,-1,2,-10,-77
1495014830127907,-62,62,0,-40,-15,-25,8,26
1495014830129920,-35,127,-7,7,-14,-6,10,1
1495014830129920,35,-68,0,33,48,19,0,4
1495014830142152,22,28,-3,-6,-43,-12,14,41
1495014830142152,-12,6,1,-9,-6,10,-15,-35
1495014830150973,51,-26,-3,9,50,33,4,-1
1495014830150973,-36,-47,-6,106,24,-4,-9,-31
1495014830166151,-31,30,-5,-45,-13,2,8,43
1495014830166151,25,-62,0,13,27,-4,-11,-20
1495014830167014,-21,45,2,-9,-74,-44,-13,-29
1495014830167014,83,127,-2,14,56,33,1,-28
1495014830188236,-88,-94,17,3,-7,-12,-12,-62
1495014830188236,-19,49,5,-14,-6,-25,-21,-14
1495014830190071,6,8,6,16,1,-4,24,13
1495014830190071,17,40,0,-40,-26,-26,-48,36
1495014830202274,0,17,-6,7,11,11,16,42
1495014830202274,-3,-58,-2,-13,-11,4,32,-28
1495014830211128,24,31,-11,0,19,20,7,1
1495014830211128,-10,-25,2,-30,-24,-9,6,6
1495014830227171,4,-12,-4,12,1,-1,0,72
1495014830227171,-19,-91,-9,-10,-24,-10,-21,-81
1495014830227171,-4,-13,1,-23,46,7,5,12
1495014830227171,-3,-2,1,-7,-9,-7,1,-20
1495014830248409,43,104,-5,6,-2,25,11,33
1495014830248409,24,56,5,-4,-5,3,-8,2
1495014830249229,-25,-103,2,-17,-14,-4,-6,7
1495014830249229,-21,30,-3,13,-31,-20,-13,-19
1495014830261267,-9,-7,1,-3,5,-2,7,21
1495014830261267,2,120,2,4,0,-3,-10,-20
1495014830270452,93,38,11,3,-2,23,11,58
1495014830270452,-86,-128,-13,-35,-17,-34,-4,-14
1495014830285497,25,127,-4,12,-4,-21,-16,-47
1495014830285497,-32,-128,-4,7,12,-16,-57,-37
1495014830287330,-19,96,-9,16,4,24,52,48
1495014830287330,40,45,1,-17,1,31,12,72
1495014830308619,-4,-22,-4,-7,-6,-4,-1,-19
1495014830308619,11,26,-5,-6,-5,-3,-7,-6
1495014830309390,-25,-30,-8,-31,22,-1,-31,-19
1495014830309390,26,-30,-7,10,-43,-10,9,9
1495014830322441,-31,-39,-7,9,77,20,4,-17
1495014830322441,17,15,-2,-30,-4,5,-7,13
1495014830338472,-23,-39,1,20,-19,-14,-2,-5
1495014830338472,4,37,-2,8,-3,-1,11,-28
1495014830345488,66,99,6,-30,-24,-13,-27,6
1495014830345488,-38,-94,10,-13,16,17,36,63
1495014830347490,-44,58,-3,15,-23,-27,-22,-111
1495014830347490,0,64,-5,-15,7,-4,-11,-19
1495014830368551,2,-7,-1,24,-9,0,6,31
1495014830368551,66,127,2,-3,-1,6,57,64
1495014830369549,-20,-106,7,-17,-20,-17,-36,-46
1495014830369549,-14,6,-3,-2,6,-13,-16,15
1495014830381588,-40,12,-9,15,-9,1,-2,23
1495014830381588,58,34,3,-13,-11,4,16,-29
1495014830390605,14,17,2,16,15,10,12,23
1495014830390605,11,-7,3,1,8,4,2,-18
1495014830405650,-21,-52,1,-8,-3,-3,-6,-1
1495014830405650,-8,44,-4,1,5,7,-11,10
1495014830407648,9,35,0,-1,-3,2,-3,2
1495014830407648,-34,-101,-8,-17,-1,-6,0,-15
1495014830427711,-6,57,6,8,-11,-7,10,0
1495014830427711,-11,6,-9,10,2,-6,-13,-23
1495014830429709,16,59,0,3,-44,-13,3,15
1495014830429709,94,122,-5,16,91,29,1,7
1495014830441942,-59,-128,12,-42,-7,21,14,2
1495014830441942,-55,96,-19,7,-18,-20,-23,-33
1495014830450768,-5,68,9,-9,0,-9,-3,19
1495014830450768,11,58,0,3,-15,-2,7,-8
1495014830465992,74,104,-14,11,8,8,-3,-6
1495014830465992,11,-11,10,7,5,1,-25,17
1495014830467813,-57,-88,-6,-32,-9,-20,11,-6
1495014830467813,3,-53,-2,-1,-11,-3,-16,52
1495014830488081,-25,8,-10,9,9,6,-1,-102
1495014830488081,30,-11,2,-6,-21,-10,-13,3
1495014830489869,14,35,2,16,12,15,-13,-16
1495014830489869,-11,-9,8,-6,-6,5,40,53
1495014830502015,-18,-47,2,-2,-6,-6,-16,6
1495014830502015,-11,-19,-7,6,13,9,4,23
1495014830510928,8,-10,15,4,6,0,3,-12
1495014830510928,-24,-24,7,-12,-6,-4,-20,-25
1495014830526110,12,1,-1,5,-9,-5,5,18
1495014830526110,-5,-12,-15,-4,-3,-9,-2,-33
1495014830526969,-1,-16,15,2,5,2,-4,24
1495014830526969,-19,-9,0,4,-9,1,11,-22
1495014830548186,14,21,1,-18,-4,-10,-7,6
1495014830548186,0,-24,-5,0,4,7,13,-3
1495014830550031,-11,-4,-4,5,-11,-12,-8,1
1495014830550031,1,-2,-3,6,8,8,1,-2
1495014830571159,12,30,-3,-28,0,1,-2,-10
1495014830571159,-18,-40,-5,0,-4,1,-10,-2
1495014830572090,9,10,-2,4,10,9,14,13
1495014830572090,5,56,2,1,-15,-4,-5,-18
1495014830585234,-17,-123,25,-4,-16,-20,-7,8
1495014830585234,-32,46,-16,9,6,-4,-3,-18
1495014830592315,9,65,12,-11,-5,-6,1,7
1495014830592315,6,3,-2,0,-4,0,-2,-16
1495014830608385,14,35,-3,15,8,16,9,8
1495014830608385,10,-31,-3,-7,-1,11,12,19
1495014830610189,-6,2,1,3,3,-5,-9,-2
1495014830610189,-3,-11,-1,0,6,3,-11,-12
1495014830631245,-2,0,-5,10,-2,-1,-3,4
1495014830631245,0,-13,4,-1,2,0,-9,-15
1495014830632252,1,-4,2,-5,2,-6,6,5
1495014830632252,-3,6,3,-2,-10,-10,0,-5
1495014830645280,-3,-6,-6,-3,-11,-10,-2,3
1495014830645280,2,6,-3,3,5,4,-1,-8
1495014830651541,-3,-20,4,-5,0,4,3,8
1495014830651541,-6,-12,2,-3,-5,-1,6,-3
1495014830668519,3,15,-12,4,-1,0,-1,4
1495014830668519,-1,1,-6,0,3,1,-5,-3
1495014830669347,-4,-16,1,3,-6,-8,0,1
1495014830669347,-4,-3,-5,10,-4,-5,-3,-9
1495014830690642,3,9,-11,-34,-3,5,1,2
1495014830690642,-3,-10,3,19,8,8,-1,-1
1495014830692407,-6,-14,-3,-9,-5,-3,-4,-1
1495014830692407,0,6,-7,7,-1,-4,0,0
1495014830705454,3,8,1,12,-2,3,5,2
1495014830705454,-4,6,-1,-10,-2,-2,-6,-5
1495014830711463,23,9,-3,8,-1,1,-1,0
1495014830711463,-20,10,6,-7,0,6,5,-1
1495014830728507,-18,-63,7,4,-1,-9,-10,-7
1495014830728507,0,2,-5,-5,-4,-2,2,1
1495014830729506,-5,16,0,0,-1,-7,2,0
1495014830729506,12,14,-8,-1,0,2,-5,-3
1495014830750567,9,30,-3,5,7,5,1,2
1495014830750567,-3,-6,5,4,1,1,-3,-5
1495014830752577,-2,-13,-5,-6,-4,-3,-1,1
1495014830752577,1,-6,-1,-3,3,3,2,2
1495014830765610,-4,6,-1,0,-11,-2,-2,-4
1495014830765610,2,-6,-2,0,1,-1,0,-2
1495014830771836,-2,-6,-4,-5,-7,1,7,5
1495014830771836,3,-3,-1,-3,-3,-3,-4,-4
1495014830788664,-8,9,-1,15,0,-5,0,-1
1495014830788664,5,-21,-3,-11,-2,3,0,-1
1495014830789674,-8,7,-3,-10,-6,-12,-8,-3
1495014830789674,-6,-53,-1,6,5,0,1,-9
1495014830810722,12,27,1,-1,1,6,-1,5
1495014830810722,0,11,1,0,1,-1,-1,-3
1495014830816743,-1,-4,-1,-1,0,-6,-4,0
1495014830816743,2,6,-2,-4,-5,-3,-14,-3
1495014830824961,11,10,4,8,5,3,1,-3
1495014830824961,9,23,3,-3,-8,-3,-1,1
1495014830831786,-21,-52,-4,5,9,3,0,1
1495014830831786,-2,1,-1,1,1,-4,-1,-3
1495014830849840,-1,0,-5,6,-17,-9,-2,-2
1495014830849840,3,6,5,-5,25,7,-2,-1
1495014830850850,7,17,-5,5,-13,-5,6,1
1495014830850850,-9,-7,2,-4,5,7,1,2
1495014830870884,-2,-14,-2,13,7,0,2,-2
1495014830870884,-3,-4,3,5,-8,-2,-4,-5
1495014830871903,1,-1,-1,-6,-1,0,6,1
1495014830871903,-1,-6,-3,-4,-3,1,4,0
1495014830885116,4,12,0,-7,-3,-2,-3,-1
1495014830885116,-2,17,1,4,1,0,-1,1
1495014830892142,-18,-63,1,-8,0,0,-1,-4
1495014830892142,3,12,-7,8,0,6,10,2
1495014830908209,-1,-1,4,-8,2,-8,3,0
1495014830908209,-1,1,4,-7,-7,0,-11,-5
1495014830909995,10,21,0,-1,-3,0,3,4
1495014830909995,0,-1,2,-1,1,-5,-13,-6
1495014830931150,4,6,-3,-2,2,6,4,5
1495014830931150,-17,-46,5,0,-8,-2,1,-2
1495014830932049,-8,23,-3,0,2,-5,-1,-2
1495014830932049,-4,-19,-1,-11,6,-1,-2,-4
1495014830944090,6,17,0,7,1,1,-4,-1
1495014830944090,1,5,0,6,-8,-1,-1,-2
1495014830953101,2,-5,-1,-9,-11,-3,1,1
1495014830953101,-2,8,-2,4,7,2,0,0
1495014830968203,-5,1,6,1,-4,1,-2,0
1495014830968203,-1,-10,1,8,8,5,2,-1
1495014830970147,-4,-1,-5,-16,-13,-16,-1,-5
1495014830970147,0,17,-2,-7,-4,1,0,1
1495014830991202,-3,-17,-1,-2,-3,-5,-4,-3
1495014830991202,1,-8,3,-5,0,0,0,0
1495014830992208,2,6,-2,-6,-2,-6,-3,-1
1495014830992208,2,7,2,2,-5,0,5,3
1495014831004488,8,-8,3,0,1,-5,-13,-3
1495014831004488,-2,1,0,7,1,5,16,1
1495014831013278,-7,2,-3,-21,4,3,-13,-5
1495014831013278,6,-13,2,7,-3,4,17,3
1495014831028309,-13,-1,-1,0,3,1,4,-1
1495014831028309,9,3,1,5,-3,0,-8,-3
1495014831029303,4,2,2,1,8,2,6,3
1495014831029303,-3,5,-3,1,-6,-2,-5,-2
1495014831050540,3,13,1,-2,-4,-4,-5,0
1495014831050540,-8,-18,-3,-26,-13,-6,-1,-8
1495014831052366,-8,-6,4,-6,11,6,8,1
1495014831052366,-2,-10,-1,-6,0,-7,-10,-5
1495014831064597,-2,5,3,-4,-3,2,3,1
1495014831064597,-7,-24,-3,-3,-6,-2,-5,-3
1495014831073432,2,16,-1,1,-5,-7,2,0
1495014831073432,9,10,-2,-4,-2,-3,-6,-2
1495014831088652,1,10,-3,-3,-3,-1,1,1
1495014831088652,0,2,-1,-9,1,-3,-6,-2
1495014831089466,-1,-16,1,4,-4,-2,7,0
1495014831089466,-6,-22,-2,3,-1,-2,-2,-1
1495014831110532,-2,3,-5,-2,1,3,3,-2
1495014831110532,4,13,5,1,2,1,-4,1
1495014831112525,0,7,-3,8,-2,-3,-2,-1
1495014831112525,8,17,-5,12,-10,-9,-6,-2
1495014831124562,-19,-26,-1,-28,0,2,1,-2
1495014831124562,-5,-5,2,1,0,0,-2,-1
1495014831133584,4,21,-3,3,-3,-4,0,-1
1495014831133584,-6,0,0,5,0,-1,-2,0
1495014831148621,4,-14,-2,2,-6,-6,-3,-2
1495014831148621,-2,-4,2,15,12,8,0,0
1495014831149626,7,11,3,-1,-6,-6,-3,-1
1495014831149626,-4,10,0,-1,7,8,-1,2
1495014831170894,-3,-16,0,8,-2,-1,1,2
1495014831170894,4,20,-6,-8,0,-7,-5,-3
1495014831172685,-17,-63,6,-2,5,1,0,-2
1495014831172685,-1,-11,-8,-6,-1,-4,-4,-3
1495014831184728,1,12,-1,0,-9,-4,-1,-1
1495014831184728,4,16,1,0,11,8,2,-1
1495014831193744,25,41,0,15,-8,-6,-3,7
1495014831193744,-14,-12,1,-43,16,16,11,16
1495014831207964,-28,-34,-2,-2,-7,-9,-9,-36
1495014831207964,1,7,2,1,-7,-2,-3,-3
1495014831209783,-3,5,-4,-1,-9,-4,4,2
1495014831209783,21,28,-1,14,-2,5,3,14
1495014831230840,6,17,-3,-11,6,-3,-5,-5
1495014831230840,-22,-77,10,-21,-13,-6,-7,-8
1495014831231843,4,7,-4,-1,-1,-3,1,11
1495014831231843,-16,-16,3,8,-4,-5,-6,-4
1495014831243875,6,4,-7,4,1,2,4,-4
1495014831243875,12,37,-2,5,-2,2,1,1
1495014831253038,-3,-17,-1,17,-8,-9,2,4
1495014831253038,14,27,-6,-41,20,11,-2,-5
1495014831268117,-15,-12,4,42,-1,13,6,17
1495014831268117,-13,-15,-2,-2,-7,-10,-4,-2
1495014831269954,0,-25,1,1,-9,-7,-1,-2
1495014831269954,3,15,3,12,-18,-15,-6,-8
1495014831291000,26,45,-5,12,1,4,-2,1
1495014831291000,23,50,-3,-24,29,11,8,28
1495014831297073,-23,-71,16,-3,-16,-10,0,9
1495014831297073,-33,-59,-5,16,-5,-11,-21,-37
1495014831304236,-1,8,-2,-24,-3,-7,-9,-47
1495014831304236,8,15,0,24,-12,-5,-1,-3
1495014831313059,27,70,3,-13,12,8,5,10
1495014831313059,53,72,-4,1,1,9,9,30
1495014831328105,-86,-67,4,-15,-11,-6,-4,34
1495014831328105,-30,23,-5,19,-12,-10,-8,-52
1495014831330103,8,57,-8,-25,16,3,-1,-1
1495014831330103,3,1,2,21,-7,-9,3,-7
1495014831350204,43,70,-9,-18,-1,1,4,14
1495014831350204,24,3,6,4,-12,7,4,21
1495014831352170,-49,-67,11,-28,12,-3,-3,-13
1495014831352170,-5,-46,-6,14,-1,3,-5,-12
1495014831364202,31,14,9,-10,3,-1,4,38
1495014831364202,-38,-46,-9,-4,-19,-10,0,-14
1495014831373221,48,22,-2,11,-8,-1,-7,3
1495014831373221,-34,-13,9,4,-17,-18,0,-39
1495014831387446,-11,-27,1,-19,61,28,1,-2
1495014831387446,-18,-39,3,-11,-6,-5,-9,1
1495014831388271,11,92,-2,13,-7,-8,2,-20
1495014831388271,-16,-35,3,-3,3,10,-4,42
1495014831418461,1,-26,3,-9,-25,-18,-1,-66
1495014831418461,20,44,-1,25,-5,0,4,21
1495014831419343,2,25,5,16,27,4,1,12
1495014831419343,-29,-31,-5,-34,14,5,-9,-14
1495014831433549,15,7,4,16,-10,0,2,27
1495014831433549,65,28,-10,-9,9,6,-9,-28
1495014831440402,-91,-93,11,-9,-12,-9,5,7
1495014831440402,-3,78,-15,47,-23,-12,8,15
1495014831448420,-17,-10,-11,-29,34,21,3,-6
1495014831448420,10,11,14,-11,-22,-16,-9,51
1495014831449423,11,-2,-17,-1,7,7,-13,-61
1495014831449423,46,-16,2,2,-5,-6,-17,-99
1495014831470481,-85,-30,4,22,-17,-11,10,29
1495014831470481,20,14,-14,-2,-2,-4,17,38
1495014831470481,26,50,3,-12,-2,2,1,40
1495014831470481,-26,16,1,3,14,9,14,64
1495014831492755,43,5,-7,1,-15,-8,-20,-26
1495014831492755,-21,38,1,-12,5,6,-16,-24
1495014831493553,-46,-73,4,52,-26,-22,-1,16
1495014831493553,37,36,-10,-90,60,43,13,-11
1495014831507760,61,77,-2,20,-19,-15,1,61
1495014831507760,-27,-52,-8,23,-21,-21,14,32
1495014831508580,80,47,9,-73,8,6,-25,-121
1495014831508580,-113,-40,10,11,-5,-21,-14,30
1495014831529837,7,-10,4,-22,5,0,9,13
1495014831529837,2,25,-4,16,-13,12,13,5
1495014831530640,24,18,-5,12,-5,-1,11,31
1495014831530640,52,45,7,13,-8,-4,-3,50
1495014831552888,6,19,-1,-16,-10,1,12,-58
1495014831552888,-12,-105,4,5,13,-3,-20,11
1495014831553699,-30,-8,-15,-6,-6,-10,-2,2
1495014831553699,-18,-39,-1,-9,-8,-6,-14,-35
1495014831575952,8,4,10,37,-23,-23,-14,37
1495014831575952,17,33,-8,45,42,29,31,-84
1495014831576762,30,113,0,-83,8,13,19,19
1495014831576762,-34,-100,0,46,-39,-13,-9,10
1495014831590012,-27,54,0,-33,27,-2,-6,19
1495014831590012,-43,15,6,-26,1,12,-3,0
1495014831590856,-77,-70,-12,20,-19,-10,9,-2
1495014831590856,112,122,8,37,-13,-12,4,0
1495014831612978,3,39,-9,32,0,-13,-4,61
1495014831612978,40,-5,7,-64,16,18,-2,-55
1495014831612978,-45,-100,-4,33,-3,-10,-9,9
1495014831612978,-25,-66,26,-25,-18,-6,-5,-31
1495014831627896,10,19,14,6,-6,1,-5,-8
1495014831627896,-18,3,2,4,10,4,9,44
1495014831627896,30,42,6,45,-9,1,4,37
1495014831627896,64,37,13,-48,13,5,-8,-27
1495014831650958,-72,-98,-8,-16,13,12,23,37
1495014831650958,85,110,-4,33,-23,-27,-16,-65
1495014831650958,-107,-93,2,-56,-16,4,-4,-38
1495014831650958,17,11,-13,42,9,-11,10,19
1495014831673016,40,4,-19,0,-4,14,-3,-19
1495014831673016,0,-41,6,13,-7,-10,-10,-22
1495014831673016,57,111,-9,-39,0,4,4,-5
1495014831673016,-41,-76,8,22,16,-6,-7,40
1495014831688057,-41,62,10,-5,0,3,-7,-31
1495014831688057,-21,-54,-19,36,5,16,-5,45
1495014831688057,85,30,24,22,-8,-16,3,-34
1495014831688057,-59,-85,-9,-11,6,18,18,6
1495014831710130,13,-31,-14,27,-13,8,1,24
1495014831710130,4,58,-5,9,-15,-11,-6,24
1495014831711120,45,45,0,-59,55,19,5,-26
1495014831711120,-68,-49,30,33,-37,-29,-12,9
1495014831732176,2,-24,-27,-1,-11,-12,-12,-43
1495014831732176,39,-17,17,8,-9,1,17,19
1495014831733184,-11,24,-35,1,-10,-3,6,80
1495014831733184,54,126,6,20,-8,6,-19,-52
1495014831747410,-33,-107,23,-10,64,8,-18,-76
1495014831747410,-62,97,17,3,-39,-30,-18,-21
1495014831748226,19,22,6,34,-5,-13,6,13
1495014831748226,8,36,-20,-33,1,11,14,26
1495014831770423,67,67,0,65,18,14,-1,25
1495014831770423,-76,-121,10,-35,-4,14,14,12
1495014831770423,-7,-4,7,95,3,-10,-4,-1
1495014831770423,43,39,-28,-114,21,13,-6,19
1495014831793338,-78,-103,-9,32,-27,-27,-32,-57
1495014831793338,22,28,1,15,19,11,-7,-36
1495014831793338,-5,16,-7,1,-16,-6,4,50
1495014831793338,7,92,-14,18,-17,13,31,50
1495014831807488,35,-70,20,-42,2,-6,-2,53
1495014831807488,19,67,-11,-47,3,-24,-30,-49
1495014831808398,-70,-128,31,-6,-17,1,19,-1
1495014831808398,-8,115,-36,1,2,-1,3,-27
1495014831830436,70,34,-10,1,6,22,14,73
1495014831830436,-37,16,27,31,-17,-13,6,-40
1495014831830436,40,37,-11,-98,-4,-19,1,30
1495014831830436,-43,-128,22,50,-3,-12,-36,-99
1495014831853673,38,105,-13,-5,-33,-8,-5,13
1495014831853673,-20,-40,-18,6,29,21,7,63
1495014831854504,12,35,-19,70,13,20,-1,-1
1495014831854504,23,30,27,-5,29,9,39,93
1495014831867722,10,9,-25,-58,-31,-14,-6,24
1495014831867722,33,-22,-6,-30,-4,0,-7,-75
1495014831868554,-45,74,-1,30,6,-8,-30,24
1495014831868554,0,-41,-30,4,3,21,36,14
1495014831889825,20,-35,0,5,-3,-11,-3,54
1495014831889825,-19,-59,11,-26,4,-9,9,-9
1495014831890605,-37,20,-6,-6,-13,-16,-7,-7
1495014831890605,76,79,-5,19,1,6,-20,-40
1495014831913663,-50,73,2,-35,8,26,30,-2
1495014831913663,21,-78,37,26,-26,-9,-18,-40
1495014831913663,64,90,-20,0,9,2,1,-8
1495014831913663,-87,-128,20,24,-35,-42,-24,15
1495014831927716,46,41,1,7,35,27,27,78
1495014831927716,-25,55,-30,-20,14,18,25,-64
1495014831927716,16,-1,-12,-30,19,11,-21,-3
1495014831927716,-27,-2,-1,33,-28,-11,-7,24
1495014831949954,1,9,-16,-1,-7,8,16,-19
1495014831949954,1,-31,4,-25,-2,-19,-17,95
1495014831950766,-40,-47,-17,11,-3,4,13,-26
1495014831950766,14,110,-6,-24,18,-7,-16,-33
1495014831973011,-49,-35,-4,11,-5,2,23,-26
1495014831973011,-37,-64,15,-4,-5,2,-12,28
1495014831973826,-15,-59,-5,17,7,4,6,-8
1495014831973826,92,57,24,21,-38,-27,-29,62
1495014831987971,-46,-45,-2,-99,50,-11,3,-128
1495014831987971,12,-29,6,103,2,-4,3,74
1495014831987971,-76,-10,26,4,-32,-35,-19,17
1495014831987971,16,39,-21,-1,19,27,24,17
1495014832009920,50,66,-3,36,10,-3,-19,1
1495014832009920,-95,5,3,-112,8,24,23,84
1495014832017940,59,-106,21,-60,-14,-16,-12,-93
1495014832017940,-10,-42,-6,48,-6,2,9,-4
1495014832032972,74,102,-4,-15,-26,-10,-20,-3
1495014832032972,-65,-43,-1,23,28,15,-7,-36
1495014832033976,-9,-86,-6,12,-10,-13,-8,56
1495014832033976,-10,10,-6,-59,-4,13,35,31
1495014832047039,-3,-79,23,34,-20,-27,-13,-3
1495014832047039,57,127,-10,-5,-5,-15,-27,5
1495014832048012,0,-62,12,30,3,18,11,-25
1495014832048012,-6,-13,-13,-14,21,7,0,-40
1495014832070100,-36,87,12,23,-28,-4,-12,38
1495014832070100,58,4,24,-13,19,-13,-7,111
1495014832071073,1,-16,-31,-14,-32,-8,1,13
1495014832071073,-36,-59,9,-14,17,-7,-16,-7
1495014832093137,1,52,1,13,-4,28,23,43
1495014832093137,18,34,-8,62,-36,-11,12,17
1495014832094139,50,75,5,29,32,7,-30,-50
1495014832094139,-82,-105,14,47,-19,-11,-13,22
1495014832107169,22,81,-13,-90,21,1,-16,-21
1495014832107169,-32,7,3,4,12,9,5,-43
1495014832108172,23,94,-4,51,-7,4,25,59
1495014832108172,-32,-88,14,-27,-15,-25,-11,-19
1495014832130260,-42,61,0,30,-5,-30,-17,2
1495014832130260,29,71,-13,-16,4,4,3,-29
1495014832131235,37,104,-12,-21,19,21,28,68
1495014832131235,2,12,-6,-9,5,23,-19,-53
1495014832153292,-18,-123,6,20,-18,-20,-8,-54
1495014832153292,37,-5,-4,-24,-3,-6,-4,-9
1495014832154294,-15,28,-20,28,-40,-13,0,35
1495014832154294,13,61,-3,28,51,26,68,118
1495014832166326,-26,-128,-4,-52,24,25,-28,-104
1495014832166326,67,64,-24,-14,-39,-27,-16,-4
1495014832175351,-112,-86,19,28,-8,-15,4,24
1495014832175351,25,99,-10,0,-12,6,20,45
1495014832189391,-4,-11,0,25,-10,-5,3,-83
1495014832189391,26,45,-13,44,-12,10,18,63
1495014832190391,38,5,0,-92,-14,3,-6,-39
1495014832190391,20,-65,5,6,18,-2,-24,-13
1495014832213451,-28,30,-26,42,5,18,9,39
1495014832213451,9,-3,8,-14,-11,-8,-10,-25
1495014832213451,6,-89,-3,10,16,2,34,14
1495014832213451,-4,60,-13,-2,13,11,1,7
1495014832235514,3,69,12,12,-14,-13,-11,57
1495014832235514,-33,-127,25,-27,-4,-23,-27,-100
1495014832236518,-25,113,-7,-6,4,-7,-8,-10
1495014832236518,7,-50,-4,-3,14,17,-8,19
1495014832249550,38,58,-8,64,-21,2,1,31
1495014832249550,-70,-57,23,24,-10,3,28,60
1495014832250554,74,49,-23,-38,40,10,-7,-15
1495014832250554,-90,-73,53,-7,-10,-9,-22,24
1495014832272613,1,-41,-16,101,7,1,14,-63
1495014832272613,54,75,4,-6,5,7,-5,12
1495014832273612,-25,-61,-7,-34,-22,-17,-18,-9
1495014832273612,16,72,-4,13,-4,9,5,37
1495014832286646,-12,-82,-4,-17,19,11,0,-55
1495014832286646,-27,29,4,-22,-14,-18,-16,-56
1495014832294699,-12,-27,15,41,5,-4,-7,67
1495014832294699,38,16,-8,-20,-8,-23,-33,-126
1495014832309713,-90,-5,10,-22,3,10,2,19
1495014832309713,111,51,-3,-16,-2,8,18,59
1495014832310712,-74,-52,30,26,17,29,25,53
1495014832310712,-10,2,6,-52,-55,-75,-13,-109
1495014832332769,-11,1,-29,-2,11,-9,-16,-17
1495014832332769,-15,-24,11,76,9,17,12,37
1495014832333772,14,32,-9,-5,8,17,2,-24
1495014832333772,14,-10,-14,5,-21,-5,11,21
1495014832346811,2,-26,9,6,9,28,1,16
1495014832346811,19,89,-8,12,-17,4,9,20
1495014832354858,1,-3,1,-39,30,29,7,-2
1495014832354858,2,39,2,-6,-22,-11,-13,-22
1495014832369898,-8,-65,12,-12,-26,-20,4,36
1495014832369898,-27,25,19,-32,6,-12,-12,-15
1495014832370871,31,49,-10,20,-14,-25,-12,7
1495014832370871,3,43,-3,-17,8,0,-12,-65
1495014832392929,26,-8,9,-2,17,31,31,33
1495014832392929,-44,-35,11,-18,11,1,6,-14
1495014832393932,23,9,-5,21,-13,-20,-6,12
1495014832393932,11,-37,-6,9,21,17,-12,-31
1495014832415990,15,32,-2,-1,-4,-7,-22,49
1495014832415990,-28,-51,-1,-14,0,-5,6,-15
1495014832415990,53,87,-10,4,-7,1,6,-18
1495014832415990,-17,73,-3,22,9,32,15,62
1495014832430028,-19,-70,15,1,-17,-32,-7,-17
1495014832430028,-5,97,-15,-27,17,19,16,2
1495014832431031,-3,43,5,13,1,-2,-7,-7
1495014832431031,27,61,-25,-12,5,8,6,16
1495014832453093,7,22,9,28,-12,3,-12,-7
1495014832453093,-13,-26,-7,-22,-6,-3,-6,15
1495014832454092,18,-61,0,-16,16,6,-4,-17
1495014832454092,-20,-78,11,10,-8,-3,-8,-34
1495014832475148,11,39,-10,-21,-2,-11,-18,-33
1495014832475148,-4,-58,-1,-4,0,-12,28,7
1495014832476151,-19,43,-10,7,-12,3,-12,-20
1495014832476151,32,74,-9,20,-1,-4,-3,20
1495014832490187,-30,-100,42,-45,41,22,27,66
1495014832490187,-9,54,-12,-10,-13,-22,-42,-36
1495014832490187,-35,-74,-1,14,-12,-12,-19,-57
1495014832490187,-2,6,7,-6,-2,0,13,-5
1495014832513284,23,81,-17,11,-4,9,16,-4
1495014832513284,0,37,2,5,12,29,57,49
1495014832514251,7,-85,6,22,-10,-14,-8,14
1495014832514251,24,69,2,-36,-9,-23,-20,-1
1495014832535342,1,-41,-16,-13,15,10,-7,-29
1495014832535342,-38,-82,6,-7,-4,-9,-15,-5
1495014832536311,-12,80,-11,16,-4,-5,-4,6
1495014832536311,-5,-17,-7,-11,-15,-6,4,11
1495014832549344,17,66,9,39,12,10,2,15
1495014832549344,16,-13,-1,-34,14,13,-10,-8
1495014832550347,-8,-43,1,18,13,4,-3,-4
1495014832550347,-18,-38,-8,-3,0,1,-2,14
1495014832573408,3,12,-13,-15,-20,-18,2,-11
1495014832573408,12,33,-8,21,1,-1,-15,-7
1495014832573408,13,56,8,-6,-7,-1,10,9
1495014832573408,-1,-8,-4,2,24,22,-3,2
1495014832595467,-56,-8,5,-5,-25,-21,-9,-2
1495014832595467,34,90,-20,10,2,-7,-16,-9
1495014832596470,-14,-112,8,-6,6,15,41,59
1495014832596470,7,74,1,-5,-13,-25,-35,-102
1495014832609700,28,28,-14,13,7,12,7,47
1495014832609700,-13,-38,-9,-15,-14,-12,-5,3
1495014832610508,3,52,-5,-7,-9,-10,-14,-1
1495014832610508,-8,-85,8,0,24,26,18,45
1495014832633863,9,12,-2,-15,-29,-10,-13,-24
1495014832633863,-6,-30,7,34,13,-1,4,-10
1495014832633863,4,20,-5,-19,3,1,-4,-10
1495014832633863,-17,-36,3,-19,-7,-7,7,12
1495014832655876,4,11,-16,11,-2,5,-7,-14
1495014832655876,4,-17,17,2,-5,-3,3,11
1495014832656636,-12,-9,-1,0,-8,-10,-27,-31
1495014832656636,9,113,-1,16,7,4,21,14
1495014832669854,15,-59,11,-18,2,7,-9,12
1495014832669854,-30,-57,19,-12,-16,-18,8,-3
1495014832670673,-24,53,-12,1,3,-7,-20,-15
1495014832670673,-13,29,-9,-6,-2,-8,-58,-7
1495014832692803,61,42,9,9,5,20,98,37
1495014832692803,-18,-73,13,-9,-7,-11,-41,-83
1495014832693731,3,0,-8,-4,-6,-3,1,-3
1495014832693731,0,7,-9,7,-4,-5,-7,25
1495014832715997,0,28,-3,5,4,1,-23,10
1495014832715997,7,12,-2,1,-5,6,7,26
1495014832716792,-5,-15,0,-16,-7,0,0,-17
1495014832716792,0,-45,-2,18,8,4,7,2
1495014832729987,-5,13,-14,5,-1,-5,-11,-5
1495014832729987,6,23,7,0,-9,-15,7,4
1495014832730833,0,14,-6,-20,6,7,0,-7
1495014832730833,-3,-29,6,9,1,14,27,15
1495014832753069,-7,6,16,-23,-6,-10,-16,-14
1495014832753069,-3,7,-9,21,-1,-4,-4,5
1495014832753894,-2,-3,0,3,-1,2,4,-8
1495014832753894,13,-18,5,-19,-4,4,11,12
1495014832776076,-3,10,4,-2,1,2,-19,-14
1495014832776076,-32,-58,18,-22,-9,-15,-6,-7
1495014832776076,5,16,6,12,-2,-13,-19,6
1495014832776076,18,13,8,0,0,17,71,7
1495014832790164,2,16,-6,11,0,-5,-42,-20
1495014832790164,-2,-14,0,-9,-3,7,16,8
1495014832791001,0,12,-7,1,-1,-1,28,18
1495014832791001,-6,-10,0,7,-2,-8,-21,-7
1495014832813211,0,12,-9,-8,-4,-3,-6,2
1495014832813211,14,14,0,-10,0,1,2,-1
1495014832814063,-11,-15,1,8,4,4,-12,-19
1495014832814063,-1,-10,4,-1,-4,-5,-7,5
1495014832836313,-9,-7,2,-1,1,1,7,-9
1495014832836313,-2,9,3,-12,-5,-9,-6,2
1495014832838115,3,-1,4,23,4,1,3,-1
1495014832838115,-5,-8,8,-17,3,3,-4,3
1495014832850151,-12,-13,6,3,-1,-2,-7,-8
1495014832850151,10,11,-5,-17,2,3,5,3
1495014832851151,3,12,6,6,-6,1,6,13
1495014832851151,-6,-19,-2,4,-2,-7,-6,-11
1495014832873405,-5,-1,5,-6,-1,-2,-4,-3
1495014832873405,6,21,4,0,-8,-12,-9,0
1495014832874213,2,-2,1,8,7,12,20,-1
1495014832874213,-6,-1,0,-8,-7,-3,-11,-5
1495014832895509,-2,-15,7,-2,0,2,-4,-5
1495014832895509,0,13,12,7,-3,-5,7,7
1495014832896272,-2,-21,-4,-13,-5,-4,-10,-11
1495014832896272,-3,-3,-1,8,-3,-5,1,-1
1495014832910308,0,5,-3,-6,-4,-4,-5,-1
1495014832910308,5,-2,1,1,2,8,10,6
1495014832910308,-7,5,-2,-5,0,1,-5,-5
1495014832910308,7,3,-2,2,-6,-4,-6,1
1495014832933561,-6,-5,-7,3,7,3,5,1
1495014832933561,-10,-31,0,-6,-5,-10,-2,-1
1495014832934374,2,11,-11,-2,-3,-1,2,-6
1495014832934374,-1,-3,0,1,-1,0,-6,-1
1495014832955619,4,17,0,-12,-4,-3,0,-1
1495014832955619,9,12,-11,11,8,3,3,7
1495014832956442,-8,10,2,13,1,1,-4,-2
1495014832956442,-15,-48,3,-10,3,-2,-3,-6
1495014832969701,-4,1,-5,-11,-11,-2,0,1
1495014832969701,4,9,-2,5,0,-4,3,2
1495014832978499,6,9,2,2,-6,0,-8,-1
1495014832978499,3,17,-5,1,2,3,0,1
1495014832993531,-2,-12,9,-3,-3,-3,-2,-1
1495014832993531,-2,4,-6,-9,0,3,1,2
1495014832994532,2,0,-1,-2,-2,-4,-5,-4
1495014832994532,-15,0,-2,2,-1,-7,-6,-1
1495014833015783,7,-8,1,-1,1,1,-8,-2
1495014833015783,-2,3,2,-1,-5,3,31,2
1495014833017593,-3,-24,-4,-7,-1,-1,-11,-7
1495014833017593,1,5,-2,-2,-5,-1,-6,-1
1495014833029635,-4,2,3,1,3,1,-4,0
1495014833029635,2,19,-6,1,-4,-9,-5,0
1495014833038650,5,-18,-4,-1,4,4,5,0
1495014833038650,-16,-23,-6,-1,-9,-7,-3,-1
1495014833053690,-4,8,1,5,4,-3,4,-3
1495014833053690,2,15,-1,2,-1,-1,-6,1
1495014833054695,1,-12,3,-19,8,4,-1,-1
1495014833054695,10,14,3,14,-4,1,-3,1
1495014833076000,-2,-4,-6,-5,6,7,5,-1
1495014833076000,-14,-20,1,5,-4,-4,0,2
1495014833077759,-8,-5,3,-1,-6,-6,-9,0
1495014833077759,3,5,-2,-5,-2,-3,0,-2
1495014833089865,2,0,-3,4,-4,-3,-1,0
1495014833089865,3,14,3,-10,-4,-4,12,-2
1495014833097965,-3,18,-2,3,2,1,-3,-1
1495014833097965,2,-16,-2,1,2,3,-9,-2
1495014833113041,-11,-22,3,2,-5,-2,-3,4
1495014833113041,0,-1,-7,-5,-1,-6,-12,-2
1495014833114854,2,4,3,0,-5,1,20,2
1495014833114854,6,41,-4,6,4,4,-1,-1
1495014833135910,-1,-15,0,-14,-5,-2,-7,-2
1495014833135910,0,-9,-8,4,6,-1,-6,-1
1495014833136927,-15,-7,-2,7,-3,-6,-1,-3
1495014833136927,7,-3,4,-1,4,1,2,-1
1495014833149144,0,1,-1,4,-7,2,5,1
1495014833149144,2,11,0,-6,-7,-5,-5,0
1495014833158044,8,11,-2,12,5,1,-4,-2
1495014833158044,-14,-20,0,-3,3,6,5,1
1495014833173048,0,-18,6,2,-1,-1,-5,-5
1495014833173048,-4,-1,2,0,-4,-5,-7,-3
1495014833175020,1,0,0,-5,-3,0,4,2
1495014833175020,2,1,2,-8,-8,-7,3,0
1495014833196127,-2,6,1,3,3,1,5,-1
1495014833196127,13,12,2,11,0,0,0,2
1495014833197074,7,39,-1,-24,1,4,-11,0
1495014833197074,-27,-79,2,2,0,-2,9,2
1495014833209280,-12,-36,0,-1,-9,-6,-1,6
1495014833209280,-6,8,-1,-3,-2,-7,-9,-25
1495014833218128,7,20,-1,-5,-9,-3,-4,2
1495014833218128,21,32,-2,12,9,4,-2,-1
1495014833232334,-15,17,4,-17,-3,7,4,5
1495014833232334,-7,-40,4,4,2,-5,-4,3
1495014833241188,-3,-14,1,3,0,-2,-4,-4
1495014833241188,1,20,-2,5,-5,-4,-1,-2
1495014833256236,8,1,-1,2,2,-3,-2,-5
1495014833256236,-1,3,-1,-11,-7,-5,0,4
1495014833257233,-4,-7,-2,2,-4,-2,-4,-3
1495014833257233,-1,-5,5,-21,-5,5,10,4
1495014833269453,-1,-1,2,0,-1,-3,-8,0
1495014833269453,-4,-1,-4,-1,-5,-4,4,-10
1495014833278294,-1,-18,-1,-2,-3,-7,-5,0
1495014833278294,4,17,-2,1,-2,-3,-2,0
1495014833293329,9,13,-3,3,-2,2,6,-6
1495014833293329,6,5,-4,-6,2,4,-2,11
1495014833294330,-19,-39,3,8,-2,-4,-4,3
1495014833294330,-15,-17,-4,-4,-3,-6,-7,-5
1495014833315568,-3,-4,-7,-6,0,-2,-6,-21
1495014833315568,5,4,2,7,0,-4,1,5
1495014833317392,9,15,-8,-5,1,6,6,-4
1495014833317392,8,10,-7,10,-7,-2,-4,7
1495014833329427,13,54,-7,-15,9,7,-1,8
1495014833329427,-24,-74,6,18,-4,-3,2,6
1495014833338453,-26,-38,-3,-2,-1,0,-1,-5
1495014833338453,-10,-16,-3,-8,-1,-3,-5,-13
1495014833353684,12,29,4,4,-8,-7,-4,-2
1495014833353684,22,40,-10,-8,-2,-1,5,3
1495014833354492,-14,-5,6,-6,5,5,5,12
1495014833354492,23,13,-13,-9,3,3,-2,-2
1495014833375730,-30,-23,-2,-19,-4,-1,0,23
1495014833375730,-9,-23,0,-7,-5,-8,-9,-70
1495014833377551,2,14,2,5,-4,-7,-8,-18
1495014833377551,-4,-17,-7,-12,-1,-4,-4,-1
1495014833389794,11,31,1,5,1,2,5,8
1495014833389794,13,6,-6,0,-3,0,0,33
1495014833398608,7,4,5,2,6,7,11,6
1495014833398608,-15,-6,-5,-9,-5,-6,-6,-10
1495014833413685,-5,-23,0,9,-2,-5,-6,2
1495014833413685,-10,-7,-8,1,-1,-5,6,9
1495014833414664,20,29,0,1,-5,-3,-5,-10
1495014833414664,6,12,-2,17,7,4,0,8
1495014833442733,6,2,-7,18,-16,2,5,-1
1495014833442733,-15,-25,1,-18,34,8,-5,8
1495014833444730,11,44,1,-20,-21,-10,-9,-31
1495014833444730,-10,4,2,36,9,6,7,17
1495014833458769,-36,-100,17,-30,-24,-15,-1,-1
1495014833458769,5,84,-13,2,-5,-9,-2,-26
1495014833459773,5,-8,7,10,10,5,7,20
1495014833459773,8,31,-4,5,-2,0,-4,1
1495014833473814,17,37,-3,5,8,9,3,-18
1495014833473814,-32,-90,9,-12,-17,-10,4,-7
1495014833474812,-1,-7,2,3,1,-9,-15,-14
1495014833474812,11,19,-3,-16,-5,3,10,9
1495014833496117,11,9,0,4,8,4,0,13
1495014833496117,21,25,-3,5,3,7,4,30
1495014833496869,-6,22,1,21,-3,11,2,9
1495014833496869,5,-2,9,-11,-6,5,-2,-9
1495014833519110,-22,-81,7,7,6,-8,-8,-3
1495014833519110,-19,17,2,13,-6,-3,4,-3
1495014833519932,-3,-6,-7,-11,-5,-4,4,5
1495014833519932,17,29,-2,6,5,5,-1,22
1495014833533147,17,127,-3,26,-3,9,-13,-31
1495014833533147,4,-102,4,-24,-7,-12,-2,-21
1495014833534971,-3,95,-3,-5,-4,3,0,31
1495014833534971,-41,6,10,-4,-6,-13,-6,-25
1495014833556207,9,39,2,-11,10,-13,-12,-24
1495014833556207,11,38,-4,8,2,5,4,17
1495014833557041,15,-30,5,6,9,13,8,21
1495014833557041,19,-24,-12,-40,-24,-14,1,7
1495014833578143,-21,-25,8,48,31,8,-4,-7
1495014833578143,20,-14,2,-9,-16,-6,-6,10
1495014833580090,10,14,-2,-1,11,-5,1,-2
1495014833580090,5,44,-12,12,-9,-1,-3,-19
1495014833592342,-26,-110,3,12,-10,-8,13,48
1495014833592342,-32,39,6,-81,-2,4,-10,-4
1495014833599366,-25,-35,-5,31,5,-10,-17,-74
1495014833599366,20,109,-7,12,-14,9,7,13
1495014833616196,-43,-76,-10,-26,5,4,6,-4
1495014833616196,80,99,3,2,-1,7,13,64
1495014833617190,-14,-114,8,-15,-18,-24,0,22
1495014833617190,-48,-7,5,-22,8,-2,-14,-60
1495014833638504,6,11,-2,7,-15,-1,-5,-4
1495014833638504,45,80,-16,10,5,13,8,15
1495014833639258,-24,-46,7,-7,0,-4,4,76
1495014833639258,-31,-94,6,21,-7,-25,-21,-93
1495014833652340,26,47,-4,-41,15,7,-9,13
1495014833652340,-3,-10,-3,16,-5,-9,-4,-5
1495014833659309,45,111,-18,-18,-6,11,1,9
1495014833659309,65,-117,-11,2,-6,1,10,52
1495014833675537,-89,-59,11,23,-7,-5,1,-20
1495014833675537,-64,-93,10,-53,3,-13,-13,-25
1495014833677348,19,18,-11,13,-6,10,20,2
1495014833677348,14,14,-14,19,-12,-14,-14,-16
1495014833698575,53,82,-16,-23,-14,-7,-2,-29
1495014833698575,81,111,-10,74,-4,13,8,32
1495014833699411,-88,-76,9,-58,25,27,-7,16
1495014833699411,-83,-91,37,-28,-14,-23,0,-1
1495014833712451,18,127,-27,-1,-19,-21,12,-25
1495014833712451,-5,18,-7,19,8,-6,17,42
1495014833719716,21,91,-35,12,10,6,-25,-32
1495014833719716,108,42,-8,-6,5,15,-4,-10
1495014833735683,-50,-99,21,-27,-17,-26,-18,-19
1495014833735683,-14,16,-9,10,-3,-3,2,-38
1495014833737510,3,-18,-12,28,-3,-2,3,37
1495014833737510,-7,40,-23,-8,58,47,22,15
1495014833758664,56,118,-21,40,-30,-8,-8,14
1495014833758664,-88,-117,21,-67,29,15,-15,-36
1495014833759572,-1,-27,18,76,-4,-14,13,21
1495014833759572,-66,-30,0,87,-2,-36,-26,-86
1495014833772778,67,82,-17,-78,-4,16,12,2
1495014833772778,61,73,-11,48,-11,-2,9,76
1495014833779628,6,30,15,-4,1,0,-15,-85
1495014833779628,-51,-31,-19,3,14,10,9,52
1495014833795865,-14,-100,-3,7,13,17,10,62
1495014833795865,-45,-52,-2,1,-13,-3,-12,-94
1495014833797669,22,24,22,-36,-19,-33,-3,6
1495014833797669,118,101,-35,2,14,22,10,27
1495014833818732,-107,-103,37,-10,-29,-9,10,7
1495014833818732,18,91,-15,16,40,-16,-11,14
1495014833819728,22,-8,-15,-56,-34,-32,-13,-15
1495014833819728,36,85,-17,20,39,55,18,33
1495014833832775,-45,-107,16,2,-14,6,11,14
1495014833832775,12,85,-10,24,-15,-19,-15,-88
1495014833839847,-2,-38,-5,18,24,6,-12,-60
1495014833839847,-25,-92,19,-46,-10,-10,4,62
1495014833856012,54,80,6,18,-8,-13,1,23
1495014833856012,1,11,-10,-12,11,16,4,18
1495014833856826,-58,36,-1,-39,-24,11,9,41
1495014833856826,34,91,-32,13,-16,0,-5,-32
1495014833878899,71,-95,26,1,26,9,10,49
1495014833878899,-128,-83,6,-8,-42,-30,-16,-19
1495014833879891,43,12,-12,-13,4,-14,-19,-1
1495014833879891,17,33,22,-6,8,-6,-7,33
1495014833892923,-28,49,-23,1,-6,4,8,4
1495014833892923,83,-86,5,-16,-1,3,11,68
1495014833899199,-34,17,16,27,4,3,-4,-30
1495014833899199,-9,62,-7,-16,-15,-1,-11,-8
1495014833916235,52,29,-12,35,17,-2,-5,-17
1495014833916235,-71,-6,-7,-61,5,16,3,58
1495014833916989,-41,-121,34,77,17,6,-4,-104
1495014833916989,-27,-32,-12,-109,-2,-29,-4,-38
1495014833938242,-34,61,-15,2,3,10,-4,24
1495014833938242,42,110,-26,64,-3,1,25,13
1495014833940048,-8,-99,14,1,-31,-7,-17,-8
1495014833940048,14,75,-24,19,7,12,10,46
1495014833952112,-34,63,55,-61,12,7,-20,-14
1495014833952112,-19,-122,-5,-22,-15,-22,-17,-30
1495014833961103,29,127,-38,-6,3,6,13,48
1495014833961103,-67,-67,-4,48,-19,-1,-2,5
1495014833976154,127,55,-9,-18,13,8,2,-15
1495014833976154,-77,70,15,7,-8,-3,-9,17
1495014833977148,-20,-78,-12,20,15,6,22,44
1495014833977148,4,-66,-2,-27,-7,-4,3,-31
1495014833998362,-8,47,-9,40,-9,-10,2,-13
1495014833998362,26,3,-15,14,18,20,1,-2
1495014834000207,49,11,0,-30,19,6,19,84
1495014834000207,-25,-11,7,23,-7,3,-16,-53
1495014834012248,-23,-2,-13,-15,17,0,-7,63
1495014834012248,9,-51,0,51,-27,-4,13,38
1495014834021268,11,116,-32,-74,11,8,-1,23
1495014834021268,103,-77,38,20,-8,9,28,102
1495014834035305,-75,-85,10,-24,-32,-37,-13,-91
1495014834035305,85,27,-11,-21,-9,4,11,-6
1495014834037313,21,78,-14,-3,-21,-12,-5,-23
1495014834037313,3,5,4,3,14,23,-9,33
1495014834058570,-13,-7,5,0,-9,-20,-34,-80
1495014834058570,50,87,-29,-7,-6,-5,4,-43
1495014834059367,-43,-71,52,12,-11,-6,-13,-51
1495014834059367,7,88,-26,19,-8,-14,-2,25
1495014834072400,32,-49,-1,13,-5,2,31,48
1495014834072400,-52,-109,-2,-6,10,-11,-17,27
1495014834080491,41,51,-38,-17,38,29,2,-12
1495014834080491,-75,0,22,23,33,-7,-26,-28
1495014834095679,32,17,-18,-35,-2,16,16,76
1495014834095679,-9,8,-12,42,-31,-24,-11,-70
1495014834097468,10,14,-19,-22,15,24,-4,30
1495014834097468,-26,-104,6,-20,-37,-17,-2,0
1495014834118732,-51,48,-18,78,10,7,12,29
1495014834118732,115,90,2,-60,14,20,16,42
1495014834120534,-75,-128,49,6,-25,-55,-47,-5
1495014834120534,-17,75,-1,11,-3,-20,-25,-99
1495014834140789,23,44,4,-1,6,10,-9,-42
1495014834140789,56,76,-19,27,21,34,35,80
1495014834142588,-3,18,16,21,-29,-25,-34,-55
1495014834142588,-38,-50,10,-15,2,14,-17,51
1495014834155821,28,-113,23,-32,-10,-54,10,-37
1495014834155821,6,87,-20,4,-16,-13,-1,-5
1495014834157626,30,-107,-2,12,46,41,50,126
1495014834157626,-6,97,-8,-22,-28,-3,-6,-106
1495014834178683,-18,-15,-15,-62,-8,4,-23,34
1495014834178683,-14,-62,13,11,10,7,7,23
1495014834179688,67,127,-18,65,-17,11,26,25
1495014834179688,-48,-113,7,-49,32,22,2,-10
1495014834191885,-28,-56,13,26,-2,23,11,33
1495014834191885,-74,-56,11,-74,-9,-33,-27,-6
1495014834200756,-44,96,10,22,-16,-51,-14,-111
1495014834200756,45,-50,-10,21,21,19,6,5
1495014834215995,-8,-56,10,8,-26,-9,-7,24
1495014834215995,-109,-3,-18,-7,20,3,-1,-29
1495014834217788,52,57,22,-8,-2,23,22,74
1495014834217788,29,15,5,15,-10,-43,-19,12
1495014834238843,34,116,-10,-37,8,-6,-15,-98
1495014834238843,-30,-91,21,82,-30,-16,-17,-15
1495014834239848,43,77,-32,-75,27,36,10,7
1495014834239848,-49,127,4,62,7,24,9,59
1495014834252036,-18,-97,4,-64,-23,-2,-3,-18
1495014834252036,63,93,2,53,-18,-48,-18,-33
1495014834260909,-18,-128,4,-31,4,5,4,41
1495014834260909,42,104,5,-86,4,8,22,4
1495014834275942,-5,60,2,35,-3,-15,-21,-19
1495014834275942,-8,70,-5,3,3,20,3,-32
1495014834276946,-11,-4,13,10,-7,-1,-16,40
1495014834276946,34,-107,37,10,-16,-12,-36,34
1495014834298179,-105,3,-4,-1,-12,-37,17,-81
1495014834298179,71,47,-1,-32,3,-17,12,3
1495014834300005,-30,17,-12,21,1,10,-4,2
1495014834300005,64,35,-15,-1,17,22,9,7
1495014834312036,67,127,-13,35,5,32,-4,127
1495014834312036,-40,-128,44,-41,-9,-22,-53,-70
1495014834321105,-54,-84,-14,-19,-13,-11,14,-5
1495014834321105,26,-44,-7,70,-25,-12,-1,41
1495014834336100,-23,-101,21,5,49,9,24,-29
1495014834336100,10,111,-24,57,-19,2,17,33
1495014834337111,6,68,14,-96,-11,-21,-33,-58
1495014834337111,4,2,-19,33,7,2,7,-5
1495014834358344,108,112,-27,21,-18,17,8,43
1495014834358344,-112,-128,13,2,34,29,-5,-14
1495014834360166,18,76,-10,44,-40,-23,-5,-64
1495014834360166,38,52,-15,-45,15,24,25,66
1495014834381222,-34,-41,10,-11,-12,-34,0,-10
1495014834381222,59,72,5,-14,0,-19,-48,11
1495014834382229,-40,-22,0,18,-6,-10,0,-80
1495014834382229,-41,29,-29,10,13,20,34,11
1495014834395298,52,-61,29,3,7,18,-16,6
1495014834395298,12,63,-8,-11,-42,-29,-6,35
1495014834397266,4,-80,5,-2,25,12,10,71
1495014834397266,-49,-65,13,-28,-3,-26,-14,-77
1495014834425515,-24,73,-15,-37,7,15,22,12
1495014834425515,11,-21,-15,10,27,36,24,21
1495014834427344,48,127,-19,-8,52,23,-11,18
1495014834427344,-65,-128,11,-13,-21,16,9,-50
1495014834440596,35,32,-28,13,-45,-11,-6,15
1495014834440596,14,13,4,5,27,13,9,15
1495014834442385,-20,51,-21,37,-7,5,-11,-47
1495014834442385,19,-14,12,7,7,-21,-18,30
1495014834455504,-28,-47,-4,-21,-6,-17,23,-44
1495014834455504,-5,-51,-8,-27,4,-5,-28,-60
1495014834461442,2,-18,3,17,-4,7,-23,57
1495014834461442,17,38,-13,21,12,25,60,-41
1495014834478701,-18,-16,38,-7,-22,-58,-60,-41
1495014834478701,-50,-15,-21,-7,6,-10,14,-33
1495014834479483,93,-87,29,3,-4,2,7,28
1495014834479483,-4,14,-1,-2,-8,-11,-28,16
1495014834500594,6,28,-7,37,5,20,23,7
1495014834500594,14,34,-11,-9,17,15,8,26
1495014834502553,21,0,17,27,2,23,11,-18
1495014834502553,-13,23,6,-29,-33,-13,-17,21
1495014834514764,5,-48,1,31,18,8,9,16
1495014834514764,-17,-5,1,10,-27,-19,-16,4
1495014834521806,-14,17,0,-26,-45,-15,2,-7
1495014834521806,18,-34,10,-4,56,8,-3,28
1495014834538651,-27,-52,-13,-5,-8,-22,-12,-53
1495014834538651,-12,-17,-7,2,6,15,-3,32
1495014834539644,-24,26,-4,0,-6,-5,37,14
1495014834539644,9,-11,12,-19,-20,-15,-31,-34
1495014834560755,24,67,-3,-11,11,3,-16,1
1495014834560755,31,0,1,-11,1,12,19,16
1495014834562704,-36,-51,-2,2,4,3,25,13
1495014834562704,-15,-17,-1,7,-11,-5,-8,7
1495014834575748,17,47,1,15,10,11,-3,17
1495014834575748,-8,-31,8,0,-6,5,30,24
1495014834581935,2,-48,13,-32,13,-1,-20,-26
1495014834581935,-13,51,6,21,-2,0,-6,-21
1495014834597945,-1,-28,1,-1,3,5,-1,15
1495014834597945,23,41,-29,-16,-7,-1,7,7
1495014834599805,8,49,-1,12,3,-8,1,16
1495014834599805,-11,-41,0,-32,41,12,-5,-5
1495014834628888,11,15,-4,-5,-1,-11,-5,-2
1495014834628888,-5,56,-2,-23,0,17,6,13
1495014834629885,-67,-114,-3,1,-21,-22,-17,-13
1495014834629885,4,127,-15,8,-12,-7,0,10
1495014834635098,30,4,1,-4,3,12,9,-45
1495014834635098,74,88,29,-9,10,-6,-15,29
1495014834642061,-55,-110,-5,-14,-24,-48,-52,-84
1495014834642061,-27,114,-7,9,-1,-5,-27,-3
1495014834658969,-26,55,0,-1,5,10,41,45
1495014834658969,17,-22,5,7,2,22,44,18
1495014834659965,27,22,3,2,4,21,20,28
1495014834659965,11,-21,-1,5,-14,-14,-13,1
1495014834681138,-11,-12,0,1,4,-1,-28,3
1495014834681138,-25,-72,-4,-17,-2,-5,-25,-32
1495014834682025,22,35,18,18,11,13,8,17
1495014834682025,-3,-47,-18,-5,-8,4,5,-11
1495014834695285,8,-3,6,5,-12,-6,0,9
1495014834695285,-19,-43,17,1,3,-9,-5,-22
1495014834703081,0,25,-2,-3,26,8,2,-1
1495014834703081,12,36,8,-26,-19,0,13,0
1495014834718120,-10,-67,-2,-23,-5,0,-8,4
1495014834718120,-15,-18,-3,4,-5,-4,-3,-6
1495014834720123,-2,32,-8,7,-6,1,7,5
1495014834720123,12,3,7,4,-9,-8,-12,-19
1495014834741190,69,123,7,-2,2,-4,19,36
1495014834741190,-103,-118,10,-13,-5,-9,-21,-53
1495014834742185,8,96,-14,1,-6,-13,-17,41
1495014834742185,-7,14,3,17,14,3,-17,-57
1495014834754398,-1,42,3,0,-7,13,74,-15
1495014834754398,43,44,-4,8,3,6,-10,28
1495014834763244,6,-35,-6,-2,-1,4,2,3
1495014834763244,-1,-27,0,9,-1,-5,-13,22
1495014834778513,-20,-33,-15,-7,-2,-11,-35,-5
1495014834778513,7,-11,4,3,2,-1,2,-11
1495014834779281,-7,-17,5,-2,-6,-1,-2,-10
1495014834779281,11,12,1,-11,-11,-8,2,8
1495014834801357,-16,-36,-2,8,2,-6,-12,-9
1495014834801357,-4,0,-6,-5,-20,-9,4,0
1495014834802351,14,25,-7,11,26,-5,-11,-15
1495014834802351,3,-14,2,-16,-19,7,21,16
1495014834814585,-15,-20,-7,-3,-1,-1,-14,-6
1495014834814585,3,5,-14,-3,8,1,-15,-3
1495014834823409,7,11,5,2,-13,5,20,-1
1495014834823409,-6,-14,-8,-6,1,2,12,6
1495014834838651,-3,2,-12,2,7,-4,-15,7
1495014834838651,17,29,-5,7,-3,0,-9,6
1495014834839442,-19,-47,4,-14,-15,-25,-29,-26
1495014834839442,-1,-22,-5,1,0,9,20,18
1495014834860505,-13,4,2,-1,-6,6,17,-28
1495014834860505,15,16,-4,13,16,10,9,18
1495014834862501,12,16,2,-5,-5,5,9,9
1495014834862501,2,2,-7,9,3,-6,-24,-2
1495014834874728,-7,-11,-2,-2,-4,-12,-15,-7
1495014834874728,0,4,2,-4,2,4,10,-10
1495014834883565,1,-11,8,3,1,7,-2,4
1495014834883565,7,-3,3,1,-1,-2,1,-6
1495014834897717,-7,-1,3,3,-1,-8,-2,3
1495014834897717,-6,-7,6,-13,1,-1,3,-3
1495014834905617,2,13,0,14,-7,-8,-4,1
1495014834905617,5,1,17,-21,-1,10,12,1
1495014834920859,-1,-7,-12,-3,3,5,-5,15
1495014834920859,-5,-14,11,9,0,-5,3,-4
1495014834922662,2,11,-4,-2,-10,2,2,-7
1495014834922662,-7,-6,-2,-1,-4,-4,-1,-1
1495014834934874,1,0,12,-10,16,1,-4,11
1495014834934874,-4,-3,-11,-1,-1,4,-7,-10
1495014834942716,0,-4,-11,-6,-3,-4,-1,-7
1495014834942716,-12,-6,-5,6,-8,-4,-14,-8
1495014834958767,4,-5,9,-10,-13,-12,18,27
1495014834958767,1,7,-6,-5,0,-4,3,-3
1495014834959763,-4,-4,5,-1,-3,2,1,0
1495014834959763,-2,2,5,1,-2,-8,-12,1
1495014834981016,-4,-7,-9,1,-3,-4,-17,-14
1495014834981016,-17,-2,5,-2,0,3,3,-12
1495014834981821,-19,11,16,-7,-7,-6,-13,4
1495014834981821,1,-2,-9,7,5,1,25,-12
1495014834993859,5,7,2,-3,-3,0,-5,20
1495014834993859,-2,2,8,2,0,-1,-7,-4
1495014835002874,-3,-7,-11,4,2,7,0,-5
1495014835002874,-2,-2,-2,0,-2,-3,0,-3
1495014835018099,-3,3,12,8,3,-3,5,0
1495014835018099,-2,-14,-6,-1,0,2,-12,-3
1495014835019921,6,-2,-14,-4,2,5,9,3
1495014835019921,-2,-3,3,10,-8,-4,11,7
1495014835040976,-1,-5,-9,-3,-1,-8,-4,-8
1495014835040976,-3,-6,14,-1,-2,-2,-8,-2
1495014835041979,10,6,21,6,7,9,3,-1
1495014835041979,4,-6,-32,-3,7,9,1,7
1495014835054015,-5,2,11,3,-7,-6,1,-3
1495014835054015,3,-3,-30,-1,0,-6,-18,-9
1495014835063035,-3,-4,9,2,-1,-1,31,15
1495014835063035,9,9,3,-7,0,-1,-10,5
1495014835078229,-3,-5,9,-8,-5,-3,4,-4
1495014835078229,8,-1,7,6,4,4,-16,6
1495014835080081,-5,-5,-11,-5,-1,-7,-3,-18
1495014835080081,-5,-1,12,0,-4,1,22,5
1495014835101150,1,4,-2,7,-5,-3,4,2
1495014835101150,-1,6,8,-11,-1,-2,4,2
1495014835102140,2,-3,0,2,-1,-3,-13,-2
1495014835102140,-7,-7,9,-4,0,5,6,-11
1495014835114373,1,3,-14,-2,-8,-8,-13,-1
1495014835114373,-1,-4,4,0,-1,3,20,1
1495014835123197,2,3,-6,-10,-2,-1,-9,-3
1495014835123197,-1,-2,-1,1,1,-8,-8,-1
1495014835138437,0,-6,1,3,3,5,6,1
1495014835138437,-3,-9,4,-2,-4,2,-7,-5
1495014835139240,7,6,-2,-3,-4,-3,2,3
1495014835139240,-4,-1,6,2,-2,-3,-11,-1
1495014835161304,-1,3,-6,-9,-5,-9,-8,-4
1495014835161304,0,2,-2,1,-10,-5,-1,0
1495014835162302,-4,-15,-6,14,18,6,2,-2
1495014835162302,-2,-5,-4,1,-5,-2,-2,-1
1495014835183415,-4,-9,-10,-7,-2,-5,2,0
1495014835183415,0,-3,-6,-2,0,-1,-16,-3
1495014835184359,2,0,-1,-3,-6,2,25,1
1495014835184359,1,7,1,-1,-1,-3,-12,-1
1495014835198577,-2,12,-4,-2,1,-4,-1,-1
1495014835198577,18,-16,2,18,12,18,14,46
1495014835199399,18,-6,-20,-28,-9,-12,-20,-30
1495014835199399,-3,-5,5,2,-1,-2,0,-3
1495014835220665,3,4,-9,13,-3,-4,-5,-2
1495014835220665,-22,5,-3,-32,8,5,9,-3
1495014835222468,1,1,-3,6,-1,0,-5,4
1495014835222468,6,1,2,-5,-5,0,7,10
1495014835243514,-11,-16,-18,9,-3,-4,-2,-6
1495014835243514,9,2,2,5,-4,-5,4,-9
1495014835244518,-3,-2,-7,-3,1,2,-5,6
1495014835244518,-4,1,2,-2,-2,-4,-7,-7
1495014835258557,-4,-7,-4,-9,-3,2,4,4
1495014835258557,-4,4,3,3,-2,-5,0,-8
1495014835259562,-5,0,-1,-7,-8,-9,-3,-2
1495014835259562,-4,-6,-5,4,3,11,-3,3
1495014835280654,4,3,-5,-9,-2,2,4,6
1495014835280654,-2,-3,1,4,-2,-4,-2,-9
1495014835282619,-6,-3,-7,-9,0,5,-1,1
1495014835282619,4,-5,-2,3,-2,-3,-9,-2
1495014835303685,1,-2,10,7,4,1,11,2
1495014835303685,-9,5,-8,-1,-5,-6,-1,-7
1495014835304692,-4,4,-1,6,6,2,1,6
1495014835304692,1,0,7,-9,-4,-1,1,-1
1495014835317771,-1,2,-2,-5,-2,-7,-24,-14
1495014835317771,-4,-11,6,-1,-7,-9,1,-6
1495014835324756,-3,-4,4,6,2,12,6,3
1495014835324756,2,3,2,-2,2,-1,-3,-2
1495014835341003,-2,2,-3,1,-2,-2,6,-2
1495014835341003,3,9,1,6,-4,-10,-15,-7
1495014835342781,-3,-7,-2,3,1,3,-1,1
1495014835342781,-3,-1,1,-17,-5,-2,1,-3
1495014835363034,-5,-3,2,-1,-3,-4,-5,-2
1495014835363034,-2,3,-5,-6,-4,1,2,-1
1495014835364840,2,6,5,4,-1,-3,4,2
1495014835364840,-8,0,2,1,-10,-10,-4,-4
1495014835378101,6,4,-2,-8,2,4,-4,5
1495014835378101,0,-2,20,7,3,6,15,-1
1495014835379880,-5,-7,-5,3,-2,-3,-10,-3
1495014835379880,3,6,-1,-6,-2,-6,-4,0
1495014835401160,-3,-2,2,-3,-2,-5,-1,-1
1495014835401160,-3,-2,2,1,1,-1,-5,-2
1495014835401937,2,3,3,0,-4,-4,-2,1
1495014835401937,-10,-7,11,-1,0,-2,4,-11
1495014835423237,0,0,-9,2,-1,1,-1,-3
1495014835423237,-1,-5,-3,-5,-1,4,2,3
1495014835424998,-2,2,9,8,6,6,-2,-2
1495014835424998,2,-2,-7,-10,-1,0,-4,1
1495014835438258,8,-5,7,-4,-4,-6,9,3
1495014835438258,0,-2,-7,6,-7,-8,1,0
1495014835440039,-2,1,-5,-22,-5,-1,-6,-2
1495014835440039,-5,11,19,13,-1,1,2,1
1495014835461330,4,-6,-16,-1,-2,-4,-14,-5
1495014835461330,-1,-1,-7,-16,-2,0,8,-1
1495014835463100,-7,-7,2,16,-5,1,10,0
1495014835463100,9,-4,-13,-14,5,2,-11,-2
1495014835483326,-5,4,1,-8,-4,-8,1,-1
1495014835483326,-3,7,-7,3,-3,-11,-14,-4
1495014835485158,4,0,0,4,6,11,5,1
1495014835485158,0,3,2,-5,-7,-5,4,0
1495014835497331,-6,1,2,-3,-1,-1,6,1
1495014835497331,-3,2,6,1,4,1,-2,-4
1495014835504214,4,3,-3,-6,-3,-7,-9,0
1495014835504214,-2,7,2,3,-3,-9,1,-1
1495014835521261,-3,-9,-1,4,7,3,4,3
1495014835521261,1,-5,-10,0,1,4,-8,2
1495014835522259,-2,0,-1,-4,-5,-4,7,-5
1495014835522259,6,-5,3,0,-3,1,4,6
1495014835543319,-4,27,-3,1,1,1,0,4
1495014835543319,-6,-27,5,-2,-1,-1,-4,-5
1495014835544315,-7,-21,-17,2,0,-4,-10,-3
1495014835544315,-10,-7,0,4,3,1,3,-3
1495014835557547,0,-8,-10,0,-2,-3,2,-2
1495014835557547,5,15,4,-4,2,2,-2,1
1495014835564558,3,6,-2,1,5,1,7,0
1495014835564558,1,-8,-7,0,-3,-5,-12,-3
1495014835581415,9,10,-12,-4,-4,-11,-6,2
1495014835581415,-6,1,-3,8,2,7,13,0
1495014835582420,-3,-5,-13,-3,-2,0,-4,-2
1495014835582420,-1,8,2,-2,1,-1,-1,-3
1495014835603496,-4,0,-3,4,1,-2,3,6
1495014835603496,-1,-2,-4,-8,-4,-4,-12,-6
1495014835609493,0,0,-3,0,-2,-3,-4,-3
1495014835609493,-1,-2,-3,1,-4,-6,-2,1
1495014835617694,-2,-11,0,-11,0,2,0,-4
1495014835617694,0,-3,-2,7,4,5,5,-1
1495014835624740,-5,6,-8,2,-2,-1,-6,-1
1495014835624740,-3,-11,2,-4,-1,3,4,0
1495014835640753,-1,-5,-6,3,-1,-1,-6,-5
1495014835640753,2,4,-3,-7,-6,-6,5,-1
1495014835642578,2,-1,2,12,6,10,-6,5
1495014835642578,0,-1,-8,-2,-5,-3,3,0
1495014835663658,-3,-4,2,1,3,-1,-1,-3
1495014835663658,-2,1,-1,4,-3,-4,-7,-2
1495014835664646,-3,-1,-4,-5,-4,-8,-5,-4
1495014835664646,1,-4,7,1,-1,-2,5,0
1495014835678672,-1,-2,1,-4,4,1,-10,-4
1495014835678672,-3,-3,0,4,-10,-15,-8,-3
1495014835685692,-1,-11,-2,8,10,16,9,0
1495014835685692,1,-3,-12,-8,-3,2,-10,3
1495014835700963,-2,-2,1,5,-3,0,25,1
1495014835700963,3,4,7,-5,-3,-1,-6,-2
1495014835702738,1,0,-1,-10,-4,-6,-9,-2
1495014835702738,-1,2,1,0,-1,-4,0,-4
1495014835723805,-2,-6,-4,6,3,-2,-6,0
1495014835723805,-1,-5,-5,-6,5,2,0,0
1495014835724799,2,6,-3,-11,1,4,3,-1
1495014835724799,-1,0,-1,-1,-6,-6,-3,-3
1495014835738049,-3,7,6,1,-5,-4,2,-2
1495014835738049,1,-9,0,6,6,8,4,-1
1495014835744849,0,4,-3,4,-3,-1,-10,-2
1495014835744849,-3,2,1,-2,-5,1,8,1
1495014835760902,-2,-1,4,-6,0,-1,-2,-2
1495014835760902,1,2,1,6,1,1,1,3
1495014835762896,-3,-12,-9,13,3,1,-3,1
1495014835762896,1,-9,4,-18,-2,0,4,-3
1495014835783009,-7,-3,-13,4,-4,-1,-7,-6
1495014835783009,5,-7,2,-4,-2,1,0,8
1495014835784959,-3,6,0,-6,-2,-6,0,-5
1495014835784959,-2,3,8,1,-4,-8,-3,0
1495014835798027,-3,-14,-10,-4,-1,0,-5,2
1495014835798027,0,2,7,-2,6,5,9,-4
1495014835804117,2,4,-1,-4,-2,2,-9,-6
1495014835804117,-18,-3,-2,0,-2,-4,2,4
1495014835821052,1,3,-4,-3,1,-3,-2,3
1495014835821052,-4,-2,-7,6,-2,-5,-8,-1
1495014835822056,1,-7,7,-4,-4,-2,3,0
1495014835822056,-2,0,-3,4,3,0,0,-2
1495014835843116,-1,-5,-4,4,1,5,1,-1
1495014835843116,2,2,-4,-4,-6,-1,-4,-3
1495014835845115,-6,0,-3,5,2,3,0,-1
1495014835845115,-1,-4,10,3,-3,-3,-4,-1
1495014835857377,1,-3,-5,-15,-2,-5,1,-1
1495014835857377,-3,-10,0,-5,-8,-6,1,-1
1495014835866173,-3,-7,-7,2,0,-1,-8,-3
1495014835866173,3,2,1,-8,-1,-3,5,1
1495014835881229,-2,-4,-7,7,-2,-3,2,-2
1495014835881229,-8,-4,-3,-9,2,-6,-6,-3
1495014835882216,3,6,7,-1,1,2,6,-4
1495014835882216,3,-2,3,2,-1,2,-8,5
1495014835903393,-5,-2,1,1,-1,-1,-2,-11
1495014835903393,0,3,0,-5,0,1,-1,0
1495014835905277,1,0,-4,5,0,2,-1,1
1495014835905277,14,0,2,-6,-4,-5,-1,-5
1495014835917531,0,3,-4,-2,-2,-2,7,3
1495014835917531,-2,6,-2,2,-1,0,-4,-3
1495014835925330,2,4,-2,0,-6,-4,-4,-2
1495014835925330,-1,-1,1,-6,4,4,2,2
1495014835940587,-3,4,-1,3,2,-3,-4,-1
1495014835940587,-2,-8,0,3,-2,-1,2,-3
1495014835942376,-1,2,-13,-14,-1,3,2,2
1495014835942376,-3,4,6,1,-5,-6,1,-2
1495014835963611,-3,-7,-10,5,2,1,-2,-1
1495014835963611,-6,6,-4,-9,-6,-5,-4,-2
1495014835964436,12,-5,-2,1,1,1,-1,-6
1495014835964436,-1,2,1,-1,-4,-4,0,-2
1495014835976469,3,4,-2,9,-2,-1,3,0
1495014835976469,3,2,2,-16,2,5,0,2
1495014835985562,-2,-5,-9,7,6,4,-1,-1
1495014835985562,-4,19,3,-3,-5,-5,3,-1
1495014836008563,-4,-24,-1,0,1,2,2,1
1495014836008563,0,2,-9,0,0,-1,2,-1
1495014836014778,-2,12,3,-3,-3,-5,-2,3
1495014836014778,-1,-1,-1,0,3,2,-1,-8
1495014836023748,-3,9,-4,-1,1,4,0,11
1495014836023748,-2,-5,2,6,2,1,-3,-2
1495014836024595,11,-6,-1,-1,0,-1,2,2
1495014836024595,-47,-6,-1,-1,-8,-4,4,1
1495014836036872,1,5,0,-1,2,-3,-4,-5
1495014836036872,-2,-6,-1,-8,-1,-2,-3,-6
1495014836045659,-2,3,0,2,-3,1,-6,3
1495014836045659,8,-2,-1,4,-1,-5,3,-1
1495014836060904,3,-4,-2,-13,0,4,-1,-2
1495014836060904,-4,-4,-9,7,-2,0,-1,0
1495014836062695,-9,-6,0,-5,1,-1,2,-6
1495014836062695,8,-6,4,-3,-3,-3,-16,-1
1495014836083751,-3,4,-3,4,1,-1,2,-3
1495014836083751,5,-1,0,-2,-3,-6,3,1
1495014836084756,-6,-8,-3,-4,-4,1,-5,-5
1495014836084756,6,-1,2,-6,-4,-7,-5,0
1495014836096979,2,5,0,2,3,0,-2,1
1495014836096979,4,0,5,5,1,2,-1,1
1495014836105819,-7,-3,-3,-3,-4,-2,-4,-1
1495014836105819,3,-3,4,0,0,-1,2,1
1495014836121062,-5,4,-10,1,0,-6,-5,-6
1495014836121062,-3,-4,0,-12,-4,-4,2,0
1495014836122856,-3,-9,-4,1,4,5,-2,-2
1495014836122856,4,2,-1,3,-1,2,2,-1
1495014836142916,-19,0,2,-3,-6,-2,3,5
1495014836142916,6,-4,-6,-9,-8,-8,-8,-15
1495014836144922,-1,5,1,1,1,1,-2,-1
1495014836144922,3,-4,1,-2,-3,-4,-6,-1
1495014836157137,-1,-1,-8,-6,1,4,10,-1
1495014836157137,-4,5,7,7,1,0,-3,5
1495014836166011,-5,5,1,1,-4,-2,3,0
1495014836166011,-1,-6,1,6,6,2,3,2
1495014836181056,6,1,3,-1,-3,-3,-10,0
1495014836181056,2,3,-2,0,-2,1,-1,-1
1495014836182015,4,9,2,-2,-3,2,0,0
1495014836182015,3,7,3,-7,-7,-8,1,-5
1495014836203248,3,-9,-2,2,2,1,-4,-4
1495014836203248,0,-2,1,-3,-2,-4,3,1
1495014836205075,-7,-6,1,11,3,0,-4,-4
1495014836205075,1,1,3,-29,-5,1,7,3
1495014836217340,4,0,1,6,1,-5,-6,-2
1495014836217340,-2,1,-6,-10,-4,3,8,2
1495014836226132,-2,4,0,6,-3,-5,-25,-4
1495014836226132,-1,-8,0,-10,2,-1,14,-1
1495014836241265,-4,-1,-1,3,-4,-3,-11,-3
1495014836241265,-7,-12,10,2,2,3,4,16
1495014836242175,22,-12,-5,-7,0,4,2,-20
1495014836242175,19,6,-2,-5,-6,-2,7,3
1495014836263412,-4,-1,-6,2,5,3,-3,-3
1495014836263412,2,11,2,10,1,-1,-5,0
1495014836265234,-7,0,9,-7,-2,-2,-2,1
1495014836265234,1,-8,-1,3,-2,-6,-4,0
1495014836285293,4,-3,-7,-1,-2,0,3,-2
1495014836285293,-4,3,-2,1,-4,-2,-5,-5
1495014836286296,4,0,-2,-11,-1,1,7,3
1495014836286296,-9,1,-2,-2,-7,-7,-1,-3
1495014836300503,1,-5,2,0,-3,1,0,4
1495014836300503,-2,2,5,2,1,4,-1,-3
1495014836300503,-6,-2,0,0,4,-2,-4,-1
1495014836300503,-3,2,4,12,5,-1,-2,3
1495014836322572,-5,-3,0,-16,-1,0,0,-2
1495014836322572,0,-4,-15,0,-5,-2,-3,-2
1495014836323398,-2,5,9,1,-2,2,2,1
1495014836323398,-4,0,3,7,1,-3,-3,-1
1495014836345448,5,7,-8,-1,-1,-4,-2,-4
1495014836345448,1,-9,1,2,5,1,-2,-4
1495014836345448,-7,-12,0,-4,-4,4,1,5
1495014836345448,-4,1,-2,-2,-6,-6,-2,-5
1495014836359506,5,9,8,3,2,0,-2,3
1495014836359506,-3,3,0,-3,-2,-6,-2,-2
1495014836360494,-2,-2,-1,1,2,-2,-5,-1
1495014836360494,-24,1,-3,-3,-3,-1,3,3
1495014836382603,55,-14,2,1,-2,-3,-9,1
1495014836382603,-45,4,1,-5,-2,-2,5,-2
1495014836383549,7,0,3,-1,-1,-3,-3,1
1495014836383549,1,4,0,-1,-1,1,0,0
1495014836405608,-18,-5,0,-1,0,5,4,1
1495014836405608,6,4,-2,3,-1,-2,-6,-6
1495014836405608,0,-14,-5,-4,-1,0,-4,-1
1495014836405608,-3,23,-2,-1,0,-1,2,5
1495014836419865,-19,-28,2,6,-1,-4,-2,-9
1495014836419865,4,-25,7,-8,2,2,-1,-3
1495014836420648,-14,20,-5,-3,-3,-3,1,-4
1495014836420648,15,0,1,0,-8,-13,-4,-1
1495014836442707,0,14,3,-20,6,4,3,2
1495014836442707,5,8,-1,9,-3,-5,-2,1
1495014836443709,-2,-8,4,-4,-2,2,-3,-1
1495014836443709,-1,-9,2,5,0,1,2,2
1495014836464960,-7,3,-1,1,-5,-1,0,-2
1495014836464960,3,8,4,-6,-6,-7,-3,-1
1495014836465783,3,-4,4,0,1,0,-1,-1
1495014836465783,2,7,2,-3,-3,-3,-1,-1
1495014836479878,-12,-17,2,1,-3,-2,0,-2
1495014836479878,5,-1,-9,-6,-2,4,-2,2
1495014836487826,4,10,3,4,-2,-3,0,2
1495014836487826,-9,-14,-2,-3,-2,-2,-1,-2
1495014836503054,-5,6,-3,3,-2,-4,-2,-1
1495014836503054,1,14,-4,3,4,1,-2,-1
1495014836503873,-3,-16,2,5,0,4,-2,-1
1495014836503873,-4,-8,3,-11,-4,-7,0,-2
1495014836524936,-1,1,-7,4,1,0,-3,-2
1495014836524936,4,-2,2,-2,0,0,-2,-1
1495014836525941,-6,7,-3,1,3,3,2,0
1495014836525941,29,-16,4,0,-6,-7,-6,-8
1495014836540180,4,13,2,-1,-2,-1,2,-4
1495014836540180,2,-10,-4,2,-1,2,0,0
1495014836540975,-3,2,1,-3,6,2,-1,-3
1495014836540975,-8,-3,2,-3,-1,-4,-1,3
1495014836563026,-4,11,-5,-2,0,-2,-1,2
1495014836563026,-1,-4,-2,0,-3,-2,1,-8
1495014836563026,5,-13,1,5,7,6,4,2
1495014836563026,-3,-9,-3,2,-1,4,2,3
1495014836585277,-2,3,0,5,-4,-3,-3,-4
1495014836585277,-4,1,-2,-5,13,3,0,2
1495014836586114,-3,12,1,-12,-2,-1,-3,-2
1495014836586114,-7,-11,2,5,1,-4,-1,-2
1495014836600176,-6,-11,-3,-23,-7,-2,-3,1
1495014836600176,-4,1,-1,4,-6,-7,-3,-3
1495014836601128,0,-7,-1,-12,0,-3,-2,-4
1495014836601128,0,15,0,-6,-3,-6,2,0
1495014836622395,2,-4,1,3,0,-1,-3,1
1495014836622395,1,-3,1,5,-1,3,-2,-1
1495014836623187,0,7,-5,-8,-7,-4,-1,-3
1495014836623187,-3,-7,-2,0,-2,-2,0,0
1495014836645430,-3,1,-4,1,-3,-5,-4,-5
1495014836645430,0,0,7,-1,2,3,6,2
1495014836646255,-2,-6,9,5,-3,-5,-2,-2
1495014836646255,-5,-4,-8,-8,-3,-3,0,0
1495014836660284,-2,-5,2,7,2,4,0,-2
1495014836660284,4,6,-1,0,-3,-3,-6,-1
1495014836660284,0,2,0,-2,-5,0,-3,-1
1495014836660284,-2,1,1,-2,-4,-6,-1,0
1495014836682497,-1,6,-2,-3,2,-5,-3,0
1495014836682497,-3,-14,-7,6,4,4,4,1
1495014836683356,-1,-4,-3,-1,-4,0,-2,0
1495014836683356,-3,5,-6,-5,-2,-4,-2,-3
1495014836705454,1,0,-2,4,2,6,1,0
1495014836705454,-2,-3,4,-2,-7,-8,-4,-2
1495014836705454,-1,3,2,3,-5,-4,-2,-2
1495014836705454,18,5,-2,-3,-2,-2,0,1
1495014836720529,-7,-1,-11,5,7,0,5,1
1495014836720529,-13,-21,4,-13,-1,0,-3,-4
1495014836720529,-2,-17,-4,17,-1,-2,-2,-2
1495014836720529,-2,21,-5,-4,-4,-2,-1,0
1495014836742513,8,5,12,1,-4,0,-1,1
1495014836742513,4,14,-6,-2,-2,-2,-1,-2
1495014836743506,-1,1,2,2,2,5,2,1
1495014836743506,-3,-4,0,-6,-1,-3,0,0
1495014836764815,-1,-2,1,3,0,-2,0,-3
1495014836764815,-3,1,-3,-4,0,-1,-3,3
1495014836765565,-4,4,5,-10,-9,-9,-6,-11
1495014836765565,-19,-11,-7,3,1,0,-1,8
1495014836779834,39,-1,4,-6,-2,0,4,-13
1495014836779834,-40,0,-8,-3,-4,-1,-6,-4
1495014836780606,1,-2,-5,-8,-1,3,4,5
1495014836780606,-8,-1,8,2,0,-4,4,3
1495014836802888,-10,-3,-11,3,2,4,-2,3
1495014836802888,10,4,-8,-2,1,1,2,0
1495014836803667,-1,0,12,1,-1,-4,-4,-6
1495014836803667,-3,-7,-4,-3,0,0,-4,-5
1495014836824722,-12,-3,-2,-1,0,1,-2,1
1495014836824722,14,6,-5,1,-1,-3,0,0
1495014836825729,-12,-5,-4,-1,-4,-3,-1,1
1495014836825729,9,-1,2,5,3,-6,-1,-4
1495014836839984,-4,-2,-2,-17,4,4,-3,2
1495014836839984,-1,-13,-13,1,2,3,1,-3
1495014836840772,5,-2,-3,0,-1,0,-3,-1
1495014836840772,-1,1,11,-2,-7,-7,-1,-3
1495014836862889,-5,-1,2,6,0,0,-6,-1
1495014836862889,6,7,2,0,-2,-3,-2,-4
1495014836862889,3,0,-2,-5,-2,-1,1,1
1495014836862889,-2,-1,-6,-1,0,1,2,-3
1495014836884995,-5,-4,-3,1,-3,-7,-3,0
1495014836884995,6,10,5,-5,-1,-2,-2,0
1495014836885906,1,-7,8,1,2,4,-2,-1
1495014836885906,-3,-6,-14,-2,1,2,6,0
1495014836899922,-5,-5,1,-1,-4,0,-2,0
1495014836899922,2,0,0,-1,-2,1,0,0
1495014836908001,7,12,-1,1,4,3,2,2
1495014836908001,-5,-2,4,-3,-3,-3,-1,-2
1495014836923003,-6,-8,-2,3,-2,-2,0,-1
1495014836923003,1,-2,0,2,0,2,-1,-2
1495014836923003,-10,-22,0,-6,-5,-7,-3,-3
1495014836923003,-2,2,0,-2,0,-2,-7,-6
1495014836946233,3,3,3,-2,0,-1,12,12
1495014836946233,0,5,1,-2,-2,0,-5,-3
1495014836946233,-1,3,3,4,-3,-4,-2,-1
1495014836946233,1,-10,-4,-16,-11,-3,1,0
1495014836959092,-4,6,-6,2,5,0,-4,-5
1495014836959092,0,-6,-2,1,4,0,2,0
1495014836967278,-2,8,-1,-5,1,0,-2,-1
1495014836967278,0,-9,5,5,-4,-5,-2,-2
1495014836983144,-3,1,0,-6,-7,-1,-4,-3
1495014836983144,3,-4,1,5,-1,1,0,0
1495014836983144,-1,4,-1,0,0,-2,0,0
1495014836983144,1,20,4,-3,-3,-9,-2,-1
1495014837006215,2,-6,1,0,0,3,-1,2
1495014837006215,-2,-4,-4,-5,-2,0,0,0
1495014837006215,1,12,4,-5,-5,0,0,-5
1495014837006215,-3,-10,-3,1,1,-2,-3,-2
1495014837019497,-10,-9,-2,0,-1,0,-6,-11
1495014837019497,-2,-7,2,-4,-2,-2,6,11
1495014837027489,1,7,5,-1,-2,-3,3,4
1495014837027489,14,-2,-2,0,0,-1,2,7
1495014837042302,-5,29,7,10,-2,-4,-10,-12
1495014837042302,-13,-46,2,-15,-8,-1,5,-5
1495014837043310,-2,-9,0,-1,3,0,-3,-5
1495014837043310,-2,1,-1,-36,1,1,1,-2
1495014837066372,8,5,0,19,-2,0,1,2
1495014837066372,4,28,-4,1,-1,1,-4,-1
1495014837066372,1,-17,1,-3,-7,-3,-1,0
1495014837066372,-4,8,-6,5,2,-3,-2,0
1495014837079406,-4,-27,-3,-11,0,-2,-1,1
1495014837079406,2,11,-12,1,0,-6,-7,-2
1495014837087676,-10,5,-4,-1,0,3,2,-2
1495014837087676,-7,-35,2,4,-1,-2,-2,-5
1495014837102463,-4,4,-4,-6,-3,-3,-6,-11
1495014837102463,6,4,-4,7,2,1,9,12
1495014837103469,3,3,-3,-4,-2,1,-3,-3
1495014837103469,-1,14,-16,4,-1,-3,0,6
1495014837125524,-2,-19,-1,-2,0,0,6,2
1495014837125524,2,-1,-15,9,3,-1,-8,-11
1495014837126544,3,3,5,-27,-14,-4,6,3
1495014837126544,-1,-2,-9,28,13,5,5,0
1495014837139796,1,17,-3,-6,-1,4,-1,0
1495014837139796,8,-15,-2,-1,2,-1,-7,-5
1495014837147774,-4,35,-5,14,-2,-6,-1,5
1495014837147774,-9,-49,0,-24,-2,2,-4,-8
1495014837162803,-13,-20,1,-2,2,2,-3,2
1495014837162803,-8,-24,4,2,0,2,-1,-2
1495014837163624,3,6,-1,2,-3,-4,-5,-6
1495014837163624,17,53,-3,1,-7,-8,-1,1
1495014837185895,10,16,-5,6,-5,1,0,8
1495014837185895,-16,-44,-5,-34,15,6,-3,-4
1495014837186696,0,1,-3,13,-4,-1,-6,-6
1495014837186696,-12,-13,7,9,0,0,8,5
1495014837207970,6,13,2,-9,-12,-5,-2,0
1495014837207970,2,18,-9,16,4,2,-3,3
1495014837208753,1,-5,25,-6,-1,1,-1,0
1495014837208753,-2,15,-6,-2,-6,-2,-4,-1
1495014837222975,-3,-5,-9,2,-3,-4,-7,-11
1495014837222975,1,7,0,-3,-5,-2,6,7
1495014837223785,-2,-11,1,-1,1,-6,-2,-1
1495014837223785,0,-3,1,3,-3,-3,0,4
1495014837246058,2,0,2,-2,7,0,1,-12
1495014837246058,12,13,-7,6,-4,2,2,18
1495014837246846,-11,7,-2,-4,-1,2,-6,2
1495014837246846,-19,-63,5,2,-5,-3,0,-43
1495014837267957,0,4,-1,-2,4,-1,-1,4
1495014837267957,-1,5,-9,15,-7,-8,-9,-2
1495014837268911,10,-7,2,-44,-4,0,5,13
1495014837268911,4,58,-7,18,12,2,0,9
1495014837282963,1,-29,12,4,-1,-4,-4,-10
1495014837282963,-10,-7,-1,4,-9,-2,-6,3
1495014837282963,-15,-56,-3,7,-9,-12,-2,-14
1495014837282963,8,42,0,-4,-5,-5,0,10
1495014837306189,-4,-1,-1,8,4,-1,0,2
1495014837306189,10,21,2,-23,2,5,3,0
1495014837307007,-5,0,1,15,1,-6,-6,-7
1495014837307007,2,-22,-5,-11,-8,-2,-1,-2
1495014837328229,5,28,-9,2,-5,0,1,13
1495014837328229,17,3,1,26,-7,-2,0,-13
1495014837329065,-14,-25,-8,-39,16,8,5,32
1495014837329065,-23,-41,4,20,-2,-3,-9,-12
1495014837342100,-13,-16,5,-10,-2,-3,-12,-48
1495014837342100,-9,14,-1,10,4,2,-2,-21
1495014837343100,16,10,5,-1,-13,-11,5,4
1495014837343100,36,36,-5,16,13,7,11,73
1495014837366173,-21,54,0,-5,1,4,-8,-37
1495014837366173,-26,-95,11,-5,-5,-8,-15,-28
1495014837366173,3,48,6,9,-6,1,-3,-4
1495014837366173,-7,-11,-4,-15,-4,-3,10,4
1495014837388221,15,25,-8,25,-11,-5,9,42
1495014837388221,4,7,-17,-30,4,1,0,-1
1495014837389224,1,-22,12,27,8,1,-1,-2
1495014837389224,-4,7,-7,-12,17,5,-13,-5
1495014837403277,13,-14,8,-12,-1,4,14,36
1495014837403277,-11,3,-1,10,-9,-7,-15,-19
1495014837403277,-20,-67,-2,5,-7,-6,-7,-47
1495014837403277,6,25,-3,-29,-6,-5,-1,-14
1495014837426330,8,27,-9,7,-1,-8,1,17
1495014837426330,10,0,-1,-6,10,13,15,43
1495014837426330,12,31,2,3,-8,-7,-7,24
1495014837426330,-33,-67,9,7,-6,-7,-19,-49
1495014837448563,-13,-3,-3,-20,-2,-7,-3,-16
1495014837448563,14,38,-5,10,-3,-5,0,6
1495014837449386,21,49,-3,21,-3,9,13,24
1495014837449386,16,-36,-18,-78,29,18,11,30
1495014837462588,-26,-86,9,20,3,4,-2,4
1495014837462588,-10,-17,-3,-16,-11,-12,-17,-20
1495014837463431,0,54,-2,8,-1,-5,-4,-61
1495014837463431,7,8,-4,14,-19,-8,7,10
1495014837485668,9,15,-13,-26,11,7,0,9
1495014837485668,15,24,-9,-3,22,17,16,37
1495014837486492,-17,-37,13,2,-15,-12,-9,10
1495014837486492,-13,32,3,36,7,6,-2,-42
1495014837508542,7,-5,-14,-36,0,-2,-8,-9
1495014837508542,-19,-20,-1,23,-7,-2,4,9
1495014837508542,3,-17,-2,-17,1,1,6,15
1495014837508542,17,24,-8,3,-22,-5,18,33
1495014837522782,11,-22,3,34,19,5,5,30
1495014837522782,-1,102,5,-21,-1,-5,-55,10
1495014837523594,-35,-65,-2,-7,-2,-2,-23,-79
1495014837523594,-43,-99,-15,6,-12,-10,7,-30
1495014837546775,14,47,2,-8,-8,-6,12,31
1495014837546775,37,48,-10,35,14,16,27,56
1495014837547654,45,89,6,-38,-5,9,22,63
1495014837547654,-66,-82,5,11,12,-8,-24,-31
1495014837568702,-21,-18,9,-24,-18,-14,-15,-50
1495014837568702,-10,16,-3,65,-1,2,4,-21
1495014837568702,9,44,-17,-34,16,7,-2,11
1495014837568702,66,94,-6,10,-7,1,18,50
1495014837582743,-20,42,1,13,11,5,-2,35
1495014837582743,-55,-128,5,-2,-32,-14,-21,-90
1495014837583748,-19,90,-7,-58,24,-6,-10,-53
1495014837583748,7,62,-14,8,-21,-13,-4,20
1495014837606053,39,67,0,16,1,12,9,0
1495014837606053,63,125,-19,-52,18,19,27,123
1495014837606811,-82,-128,17,9,-27,-29,-24,-48
1495014837606811,8,120,3,-17,2,-13,-30,-59
1495014837628027,-77,-125,7,-12,-7,-10,-9,25
1495014837628027,-6,21,-15,1,1,0,13,-22
1495014837628863,63,37,-8,32,-8,23,52,127
1495014837628863,37,61,9,-3,22,-9,-34,-23
1495014837642898,-10,-81,-2,-13,-20,-5,0,14
1495014837642898,-15,-28,-2,19,-11,-7,-30,-97
1495014837642898,-9,-41,3,32,8,6,0,-13
1495014837642898,10,31,-5,19,-24,1,20,66
1495014837665962,-1,-51,-11,-19,11,-4,11,31
1495014837665962,3,20,17,-59,20,14,8,-7
1495014837665962,-14,-45,8,-2,-22,-14,2,33
1495014837665962,0,-26,-22,10,17,1,3,-7
1495014837688211,11,11,-1,-6,-24,-1,-14,-80
1495014837688211,-26,-28,-7,3,-7,-16,-2,24
1495014837689029,40,123,5,10,13,8,1,-10
1495014837689029,-28,-91,5,-3,-9,1,-1,-2
1495014837703060,8,106,15,-36,18,6,-5,-11
1495014837703060,19,16,-16,8,-13,-28,-30,-36
1495014837703060,-43,-113,7,-33,-5,-5,3,-14
1495014837703060,6,83,-3,18,-2,-2,0,14
1495014837726132,5,55,-9,31,-17,-3,15,15
1495014837726132,-9,-13,3,-36,40,37,-3,41
1495014837726132,-12,3,23,21,-23,-26,-23,-61
1495014837726132,7,-63,15,41,15,-14,10,53
1495014837748397,7,34,-19,-66,5,0,-8,-74
1495014837748397,4,3,-23,0,-25,-10,1,0
1495014837749194,-13,-18,-13,10,21,8,1,27
1495014837749194,36,81,8,26,-7,2,-2,1
1495014837762444,-7,-40,7,37,7,8,2,22
1495014837762444,-29,-27,14,-37,-3,3,0,-37
1495014837763229,59,108,-14,-1,2,4,4,39
1495014837763229,-78,-116,10,-7,-20,-17,-9,-19
1495014837786284,15,61,-3,-31,5,-2,-9,3
1495014837786284,-13,-66,-6,26,6,9,-3,9
1495014837786284,-19,-32,9,-2,-11,-7,12,-15
1495014837786284,37,77,-11,-31,-11,7,13,58
1495014837808346,15,-20,-7,-1,53,19,-11,-21
1495014837808346,-25,-98,18,25,-14,-10,-8,-31
1495014837809341,7,105,-9,7,-8,-4,-2,23
1495014837809341,-4,-58,-11,-39,19,24,4,49
1495014837822376,-4,-54,17,24,-53,-27,-4,-7
1495014837822376,22,71,-16,-54,21,-3,27,23
1495014837830525,10,-56,12,33,-3,12,-2,9
1495014837830525,-21,55,-7,23,-14,-3,-13,-40
1495014837845728,-1,-13,-6,-34,-12,-1,3,24
1495014837845728,-3,-26,-10,11,-6,0,10,25
1495014837847693,-8,18,-9,-9,-7,-5,0,26
1495014837847693,11,-14,3,-10,12,0,-1,-92
1495014837868756,29,39,-1,33,-10,-10,-14,18
1495014837868756,-3,20,0,27,-1,9,4,46
1495014837869752,7,-21,-5,-22,7,-8,2,-52
1495014837869752,-43,-60,-13,-10,-6,12,11,47
1495014837881975,-21,-14,20,45,-1,-12,-11,-81
1495014837881975,33,100,4,-16,21,2,0,50
1495014837890816,44,20,-10,7,2,6,3,35
1495014837890816,-16,-87,-20,-60,-2,7,9,4
1495014837906073,-28,49,-12,40,-17,-4,-6,-24
1495014837906073,47,50,-18,17,9,25,7,23
1495014837906851,-41,-97,48,7,20,-4,-8,-1
1495014837906851,-25,-57,26,22,-3,-18,-9,-25
1495014837928077,-8,14,-5,-39,-6,-12,1,37
1495014837928077,-7,49,-1,17,-20,-7,0,-40
1495014837929913,38,107,-26,-14,6,13,0,10
1495014837929913,7,-40,8,23,15,8,5,8
1495014837941953,-16,-42,5,-68,3,-1,-10,-16
1495014837941953,37,12,-1,11,-5,-2,8,47
1495014837950969,-42,-55,16,-8,-3,0,-5,9
1495014837950969,-15,77,-3,15,-6,-8,-25,-27
1495014837966133,28,-82,-7,3,-37,-13,13,30
1495014837966133,-57,12,-1,31,45,4,-6,-10
1495014837967015,37,37,7,-3,-21,10,19,35
1495014837967015,20,-31,14,33,26,-3,-30,8
1495014837988278,-14,-18,-20,31,-4,8,30,5
1495014837988278,3,-16,-9,31,-12,-3,-4,-2
1495014837990078,-2,47,2,-51,21,15,7,-23
1495014837990078,-21,51,5,-25,-13,-1,-16,21
1495014838002313,5,-43,9,46,-15,-17,7,54
1495014838002313,-43,-61,19,3,-22,-12,-20,-92
1495014838011128,-7,43,-7,3,-11,-19,-3,-24
1495014838011128,38,44,-20,4,15,27,18,23
1495014838026218,21,-4,5,-26,13,7,-7,21
1495014838026218,-2,-4,7,-18,-17,-2,5,-9
1495014838028173,-7,38,-1,-9,-15,-21,-20,45
1495014838028173,5,-87,0,-15,-1,-6,-17,-91
1495014838048224,-34,-22,-6,19,-15,3,4,-23
1495014838048224,-11,-14,10,-6,37,20,-14,12
1495014838050231,29,-123,24,-7,6,-18,28,5
1495014838050231,-57,-3,0,56,-29,-20,-4,-37
1495014838062269,-12,23,-6,-36,21,-14,6,16
1495014838062269,25,94,-24,4,-8,8,-1,9
1495014838071287,-18,-123,5,-32,10,-1,-6,-8
1495014838071287,24,23,-7,-65,-27,-7,2,12
1495014838085859,11,36,1,21,35,28,-4,-14
1495014838085859,-9,-50,3,12,-17,0,3,38
1495014838087607,1,59,1,-7,-16,-22,-18,-92
1495014838087607,-17,-20,2,-2,-4,-2,7,20
1495014838107671,19,53,-14,-1,6,14,2,37
1495014838107671,15,-25,-14,-24,2,14,20,9
1495014838109667,-32,-43,39,5,-30,-33,-37,-55
1495014838109667,23,17,-27,-1,16,6,17,81
1495014838121915,-33,-12,23,-1,-3,-12,-17,-93
1495014838121915,74,117,-20,-11,-8,19,21,65
1495014838130724,-16,-124,18,67,11,-4,-19,-43
1495014838130724,-24,-27,15,-79,13,9,18,24
1495014838145971,15,59,1,-62,-14,-4,-24,42
1495014838145971,-23,48,1,-31,-20,-10,5,-52
1495014838146768,2,-20,2,57,-7,10,16,21
1495014838146768,26,74,-12,26,31,13,-1,-8
1495014838168029,12,-82,4,-70,-9,11,12,19
1495014838168029,-37,-43,13,27,-14,-22,-21,-22
1495014838169830,24,93,-1,-94,2,12,9,40
1495014838169830,15,0,-6,60,3,0,-5,-27
1495014838190895,-31,-42,0,56,2,-1,10,35
1495014838190895,7,-118,2,6,-6,-33,-31,1
1495014838191888,-38,-63,-1,1,7,3,6,-22
1495014838191888,-12,-31,-11,0,0,4,6,-93
1495014838206142,23,106,-33,25,18,32,28,70
1495014838206142,58,75,6,-32,-5,0,-35,22
1495014838206927,-60,-44,24,-4,-22,-38,-24,-39
1495014838206927,25,118,-36,-11,-31,-18,-3,21
1495014838236137,-28,-40,0,36,29,0,1,-13
1495014838236137,0,27,-29,89,-20,3,19,6
1495014838237009,47,84,-5,-86,19,25,23,74
1495014838237009,2,52,-8,93,24,13,-11,7
1495014838251044,-15,-100,15,22,4,9,-4,-67
1495014838251044,-6,-8,1,26,-29,-23,-13,-18
1495014838252047,8,31,-14,-62,22,21,6,18
1495014838252047,32,94,5,-15,-17,1,15,54
1495014838266229,-29,-45,16,13,-8,-12,-9,-1
1495014838266229,-65,30,12,-28,27,10,-9,-67
1495014838267088,23,44,9,35,-30,-31,-1,0
1495014838267088,-3,-13,5,-24,18,3,-4,94
1495014838288379,20,18,-19,13,3,-5,-17,-99
1495014838288379,9,-41,9,-17,13,23,28,59
1495014838290148,-11,23,-6,24,-4,2,9,28
1495014838290148,31,79,-13,47,13,25,16,63
1495014838311234,17,-45,26,-82,-11,-3,-16,16
1495014838311234,-74,-128,13,6,-11,-20,-6,-71
1495014838312210,24,98,-11,27,22,6,8,15
1495014838312210,-2,-6,-9,16,-32,-12,-2,-42
1495014838325256,5,49,-9,-89,33,11,0,41
1495014838325256,17,-40,19,19,25,-8,-10,-14
1495014838332310,14,47,-3,68,-14,13,9,16
1495014838332310,-34,-76,40,-39,4,-4,-11,-48
1495014838348360,-25,30,-14,35,-15,-12,3,46
1495014838348360,41,-13,-21,-46,0,20,9,-9
1495014838349305,-75,-55,30,-5,-24,-38,-25,-42
1495014838349305,10,104,-17,-19,8,-3,-8,-3
1495014838370590,0,29,-1,33,-4,-1,0,32
1495014838370590,33,58,17,-5,-5,-9,1,-7
1495014838372368,20,26,-22,21,-1,4,-4,7
1495014838372368,3,-63,-8,-9,11,14,14,-6
1495014838385587,27,33,7,20,-10,-1,-2,-13
1495014838385587,-74,-36,-4,18,-6,-8,-10,2
1495014838391419,52,66,23,-58,20,12,2,9
1495014838391419,-51,-128,9,9,-34,-37,-6,-21
1495014838408463,21,111,-12,-26,-24,-2,14,1
1495014838408463,-10,36,-3,-65,33,-7,-14,-7
1495014838409465,6,21,-3,63,-29,12,10,2
1495014838409465,-7,-14,-5,7,-13,7,-3,3
1495014838431531,-5,-21,-18,45,2,-1,-6,-7
1495014838431531,-7,-19,9,-14,-25,-15,-15,-27
1495014838432529,-14,-26,-14,-15,4,-7,6,46
1495014838432529,-7,-14,12,-29,16,-6,-9,-31
1495014838445572,33,-7,10,27,-20,-20,-21,-13
1495014838445572,-22,26,12,-12,-2,-3,8,1
1495014838451582,-31,-78,-23,11,7,2,7,-6
1495014838451582,44,82,35,2,-6,0,-2,17
1495014838468621,-13,-92,-5,-11,2,-5,-13,-28
1495014838468621,6,90,-9,14,2,-8,-4,14
1495014838469626,1,-23,16,5,3,10,1,24
1495014838469626,-7,52,-30,-2,13,12,4,-12
1495014838490869,4,-12,10,-2,7,6,0,13
1495014838490869,10,-41,3,11,-18,0,2,11
1495014838492687,-22,-24,-8,-21,18,2,3,-17
1495014838492687,6,4,-7,21,-6,-8,-8,-6
1495014838513743,13,29,2,3,13,24,13,6
1495014838513743,-2,-12,-4,7,-12,6,6,5
1495014838514750,-19,-45,8,-13,-25,-41,-26,-31
1495014838514750,4,-6,4,-3,7,2,2,-7
1495014838527832,3,46,-17,15,1,-2,-3,-7
1495014838527832,2,28,19,-12,2,14,5,11
1495014838529786,-9,-62,10,-9,-13,-13,23,5
1495014838529786,0,41,-4,-7,9,3,-14,0
1495014838551030,-28,-32,-16,4,-13,-19,-21,0
1495014838551030,28,61,5,-7,3,1,2,-12
1495014838551845,30,36,-7,7,3,21,43,-4
1495014838551845,-40,-28,6,-10,-14,-15,-9,-8
1495014838564993,17,115,-21,-3,-1,1,-2,13
1495014838564993,-22,-126,-8,15,5,17,-2,-9
1495014838572100,-11,127,-6,17,-12,-17,-20,31
1495014838572100,-1,9,-12,-28,-8,-9,4,-48
1495014838588128,9,58,-7,11,-6,-4,4,6
1495014838588128,18,14,-3,-4,-5,-3,0,14
1495014838589948,1,-17,2,23,14,13,7,6
1495014838589948,18,19,2,-21,2,5,-7,7
1495014838611186,-9,-96,8,6,20,13,7,1
1495014838611186,-21,-38,12,-7,-9,-7,1,-9
1495014838612006,-16,6,-24,-12,-9,-13,-15,-14
1495014838612006,2,-5,-13,11,6,-4,1,7
1495014838625040,0,23,-3,0,8,17,22,-9
1495014838625040,31,38,7,-13,-2,-3,4,6
1495014838632171,-12,-2,5,5,0,4,-14,-3
1495014838632171,-13,-56,3,-6,-3,-7,-4,4
1495014838648114,-7,15,-13,0,-2,-8,-3,22
1495014838648114,-10,-18,0,8,1,6,-3,-50
1495014838650105,8,34,-7,8,-3,-7,-8,-31
1495014838650105,8,-16,-5,-28,-4,-3,3,5
1495014838671196,-13,49,-8,41,-10,-8,2,4
1495014838671196,29,36,6,-28,22,11,2,35
1495014838672173,-47,-73,4,-3,-9,-10,-4,-9
1495014838672173,-7,-27,6,4,-2,1,3,-4
1495014838684386,1,12,-3,-3,-12,-8,-1,-12
1495014838684386,8,47,-11,-1,2,-1,1,10
1495014838693228,19,23,-8,10,3,-4,-2,-2
1495014838693228,5,-9,4,-12,-2,3,-8,1
1495014838708274,-12,-17,7,-13,-4,4,10,-1
1495014838708274,-11,1,1,5,-6,-10,-7,-6
1495014838710266,-11,-95,0,-23,-4,-9,-28,-7
1495014838710266,-2,36,-5,17,-5,-3,18,-2
1495014838731330,16,14,-5,-12,3,3,17,2
1495014838731330,-11,-10,2,0,1,7,5,3
1495014838732326,23,43,-3,-7,-8,-2,-1,7
1495014838732326,-15,-37,-3,0,1,-1,-20,-2
1495014838744549,-9,-28,-7,-6,-2,-8,-17,-19
1495014838744549,0,-15,3,0,-6,-2,2,3
1495014838753388,12,43,-14,0,0,-4,8,12
1495014838753388,2,-18,2,9,-4,-2,-1,-6
1495014838768626,-3,-15,-7,2,8,-1,-3,-3
1495014838768626,11,50,4,-34,-3,1,3,6
1495014838769423,0,-18,1,20,13,9,11,3
1495014838769423,-19,-57,8,-10,-9,-4,-6,-5
1495014838798515,-3,25,-3,4,1,-4,2,-1
1495014838798515,-2,4,5,5,-4,-5,-8,-3
1495014838800516,17,54,-11,-7,0,-5,0,2
1495014838800516,0,-30,9,2,1,10,14,6
1495014838804720,-9,-10,-9,-11,-6,-3,-12,-9
1495014838804720,-2,-12,-9,9,-5,-10,-5,-1
1495014838813542,-1,-1,7,-5,4,6,2,-7
1495014838813542,2,23,1,11,3,6,-6,-1
1495014838828640,6,-7,7,-10,-1,8,20,11
1495014838828640,-10,-15,2,6,1,-1,-6,-2
1495014838829585,-2,2,-11,-3,-2,-6,-5,2
1495014838829585,1,14,-6,-1,2,-6,-4,0
1495014838850837,1,-4,5,3,2,1,-6,-8
1495014838850837,-2,-14,15,3,-6,1,6,2
1495014838852644,-3,-7,-3,-7,-3,-5,-1,0
1495014838852644,3,21,-3,1,2,0,2,-5
1495014838864801,0,-3,-4,-4,-2,-7,-8,-6
1495014838864801,-3,-8,1,16,-6,-8,0,0
1495014838873706,1,1,-4,-30,4,8,3,0
1495014838873706,3,8,0,5,-7,0,1,1
1495014838888741,-4,-8,-4,6,8,-2,-7,-7
1495014838888741,-2,-12,1,-4,-9,-3,-4,-2
1495014838889752,-1,27,-7,7,-4,-3,5,1
1495014838889752,-3,-2,2,-2,1,2,-1,1
1495014838910988,-3,-42,5,-4,2,-1,-8,-3
1495014838910988,-3,-1,1,-2,-1,-6,-2,-5
1495014838911802,-1,-10,-6,-5,-7,-4,4,4
1495014838911802,1,21,2,-1,2,0,0,0
1495014838924839,-7,-8,3,5,-2,3,-4,-5
1495014838924839,-1,0,3,-12,-3,-6,-8,-5
1495014838933074,1,0,-9,9,-1,-4,8,4
1495014838933074,4,5,-2,0,0,2,2,-2
1495014838948056,1,1,-2,-4,-3,2,0,-5
1495014838948056,-3,-4,-2,-1,-2,-2,0,6
1495014838949918,-4,-10,-6,-1,-2,-3,-9,-4
1495014838949918,0,-6,-6,2,1,0,-4,-1
1495014838971145,3,13,-6,-3,-3,-2,-1,-1
1495014838971145,-5,-6,4,-2,-5,-7,-5,-4
1495014838971962,-2,-1,-7,5,-2,0,2,1
1495014838971962,-2,-2,-6,-9,-4,-2,-1,2
1495014838985003,-1,1,-7,14,-4,-1,-4,-1
1495014838985003,-2,-2,-3,-21,9,5,3,2
1495014838993017,-3,-4,-1,13,3,-3,0,0
1495014838993017,-1,-3,2,2,0,-1,-3,-2
1495014839008069,0,3,-9,-4,2,0,-5,1
1495014839008069,2,-3,5,6,-4,-1,8,-1
1495014839010065,-1,-8,-4,-4,-3,-3,-1,-2
1495014839010065,0,-1,1,-1,3,2,-7,-3
1495014839031120,-2,-1,0,6,2,4,8,-1
1495014839031120,-3,-9,4,4,-1,0,-6,2
1495014839032124,5,1,-6,1,2,-4,-10,-2
1495014839032124,-3,13,1,0,-2,0,10,2
1495014839054235,-5,-32,-2,-9,-5,-2,1,-3
1495014839054235,-2,13,2,2,-3,-1,3,-3
1495014839056193,-2,-9,-3,-4,1,0,-2,1
1495014839056193,3,5,-5,4,1,0,0,-2
1495014839068227,1,12,-1,-3,0,-2,-10,-2
1495014839068227,1,-6,0,-2,-5,0,-1,2
1495014839069237,3,9,-2,0,3,0,1,1
1495014839069237,-5,-4,0,2,-1,-1,-3,1
1495014839090500,-3,-2,-4,-3,3,1,1,-2
1495014839090500,-6,-29,8,-28,-11,-7,-5,-3
1495014839092282,-4,3,-5,11,1,-3,-1,-3
1495014839092282,0,-3,-1,-2,-5,-4,-2,-3
1495014839113503,4,15,-6,0,-1,-1,-5,-1
1495014839113503,5,19,5,8,3,8,6,1
1495014839114343,-8,-5,-5,-4,1,-3,1,-1
1495014839114343,-8,-40,5,-6,-6,-3,-2,-2
1495014839128603,-4,3,-6,3,-2,-4,-5,-2
1495014839128603,1,8,-1,2,1,-3,1,0
1495014839129380,1,4,-1,-4,-3,-2,-7,-4
1495014839129380,0,6,-1,3,1,0,3,-1
1495014839150439,7,7,-1,-8,1,3,-3,-1
1495014839150439,-2,2,6,6,0,-2,0,-2
1495014839152449,-10,-33,5,0,-1,1,-6,0
1495014839152449,0,6,-1,-6,0,-3,2,2
1495014839173685,0,2,-2,1,-1,2,-3,-1
1495014839173685,5,11,-3,3,-1,-1,1,0
1495014839174503,3,8,-5,-3,-3,-4,1,0
1495014839174503,-3,-7,-2,-2,-2,-2,-2,0
1495014839188680,2,-1,2,-10,-3,1,4,-1
1495014839188680,-2,3,0,8,1,-2,-1,-1
1495014839189542,-1,-4,-3,-24,-10,-4,5,1
1495014839189542,-6,-12,-2,3,1,-5,-6,-3
1495014839210803,-1,4,-9,16,9,8,-4,-1
1495014839210803,-3,-15,4,-23,-4,-2,1,0
1495014839212602,6,21,-3,4,-5,-2,1,-2
1495014839212602,0,14,-2,-6,0,-5,-6,-3
1495014839233740,-6,-7,0,0,-3,-4,-6,-5
1495014839233740,-6,-37,3,2,-2,-3,-3,0
1495014839234663,2,13,-2,3,0,-1,3,0
1495014839234663,2,1,-1,1,2,5,5,-1
1495014839248698,2,6,2,2,-2,-2,-1,4
1495014839248698,4,8,5,2,-1,-1,3,0
1495014839249703,-4,7,-7,-6,-6,-7,-7,-2
1495014839249703,5,-5,2,7,-3,3,-4,-5
1495014839270951,-12,-16,-3,-5,6,4,-2,2
1495014839270951,-3,-7,3,-14,-5,-5,-2,-3
1495014839272762,-2,-5,-3,12,-1,-1,2,-1
1495014839272762,0,11,1,1,-5,-2,-1,0
1495014839293818,5,-2,-4,3,3,1,0,-3
1495014839293818,-3,4,-3,-13,0,1,1,0
1495014839294823,-2,-8,-4,10,-1,1,0,-3
1495014839294823,7,12,1,-10,0,4,-2,0
1495014839307858,-1,-12,3,1,-8,-4,-5,-1
1495014839307858,-6,-11,2,6,-1,-5,6,-1
1495014839322108,3,-5,-4,3,4,6,2,-1
1495014839322108,1,24,-5,-2,0,-4,4,0
1495014839330920,8,1,-4,-6,-2,0,-4,0
1495014839330920,-6,-2,-2,4,-2,-4,-4,-4
1495014839331925,-16,-45,-4,-6,0,4,3,0
1495014839331925,-1,5,-3,2,-4,-3,-5,0
1495014839353990,1,12,-6,-2,2,2,1,-2
1495014839353990,8,9,-2,8,3,2,-6,2
1495014839354982,2,11,-5,7,-2,-1,10,-2
1495014839354982,4,-5,-5,-10,11,2,-5,3
1495014839368078,-4,4,4,22,-1,3,-1,-1
1495014839368078,-11,-25,-2,-25,-15,-9,-3,-4
1495014839374040,-1,12,0,5,8,-1,-3,0
1495014839374040,-5,-27,2,10,-1,0,2,-1
1495014839391078,2,14,-6,-2,-2,0,1,-3
1495014839391078,10,32,-1,12,1,-6,-1,-1
1495014839392080,-5,-9,-6,-14,-5,0,-3,1
1495014839392080,-5,-18,1,-12,7,2,-3,-3
1495014839421218,-4,-22,-2,-2,0,0,0,0
1495014839421218,-1,8,3,0,-8,-3,4,2
1495014839422163,3,10,-7,-10,-7,-7,-5,-3
1495014839422163,-1,12,-1,1,-3,2,-2,0
1495014839428182,4,-3,-3,-7,-1,-1,-2,-3
1495014839428182,7,20,3,12,-7,-6,0,-4
1495014839434419,-18,-34,-1,-19,10,6,3,3
1495014839434419,-14,-26,-2,0,-9,-5,-7,-5
1495014839451286,-4,-12,-2,-4,-2,-1,-1,-4
1495014839451286,9,12,1,3,-1,0,6,0
1495014839452242,22,47,-5,3,-4,-5,-5,-1
1495014839452242,1,20,0,14,3,1,0,5
1495014839473486,-6,-52,-1,-35,-6,-1,-7,-6
1495014839473486,-25,-34,5,0,2,5,0,-8
1495014839475302,-2,10,-5,3,-4,-3,-6,1
1495014839475302,6,4,2,2,-3,-3,-1,-14
1495014839487583,12,48,-9,27,3,3,4,11
1495014839487583,5,-13,-4,-13,-2,-1,-1,2
1495014839494481,-7,-22,-3,-7,-1,0,-1,-1
1495014839494481,-7,-31,-5,30,4,-1,-2,2
1495014839510580,-2,39,0,-47,-4,-2,-4,-5
1495014839510580,-4,-33,2,1,-3,-4,-1,-1
1495014839512402,2,11,-3,6,-4,-1,-1,-2
1495014839512402,4,12,-6,-3,-9,-6,-3,-1
1495014839533627,8,9,-2,6,0,-1,1,14
1495014839533627,21,47,3,-9,8,5,10,31
1495014839534460,-36,-32,1,-8,-10,-10,-15,-38
1495014839534460,-29,-103,6,-2,-8,-4,-7,-31
1495014839547496,-9,19,-12,-4,6,5,5,-8
1495014839547496,18,28,0,2,-2,2,8,5
1495014839554712,50,65,-8,23,9,7,9,31
1495014839554712,-33,11,4,-34,11,9,-1,15
1495014839570757,-9,-50,6,-2,-6,-6,-8,-36
1495014839570757,-5,54,-3,25,-1,-2,-1,27
1495014839572565,6,9,1,-41,-9,-2,-2,-20
1495014839572565,32,77,-16,45,14,2,4,2
1495014839593626,61,118,1,-46,4,16,7,65
1495014839593626,-91,-126,31,30,-8,-3,-23,-65
1495014839594621,-37,104,-15,-19,-5,-17,-11,-28
1495014839594621,9,76,0,-5,-17,-15,1,9
1495014839606804,10,61,-3,-12,12,3,-4,14
1495014839606804,16,-21,16,-15,-12,-12,1,20
1495014839615674,14,81,-5,18,15,3,2,59
1495014839615674,48,29,4,-9,2,16,12,-25
1495014839630925,-88,-49,-12,17,-3,1,-9,-11
1495014839630925,-20,-65,8,-13,-12,-16,-9,-45
1495014839631721,-9,-23,0,12,-10,-6,6,11
1495014839631721,16,43,-10,-25,4,1,-1,47
1495014839653776,46,32,7,69,19,14,13,-21
1495014839653776,-3,-42,-1,-24,7,6,-6,38
1495014839654782,-16,-51,8,-8,-8,-13,-19,-80
1495014839654782,-26,41,-9,-31,-21,-8,2,6
1495014839666926,-14,-76,10,49,-9,-2,-1,-9
1495014839666926,30,68,-22,-6,20,3,10,42
1495014839675842,82,95,-1,32,3,13,23,80
1495014839675842,-64,2,8,-8,-15,11,-31,26
1495014839690935,-100,-68,27,-15,-27,-35,-29,-104
1495014839690935,7,127,-5,-19,-14,-20,5,35
1495014839691877,8,20,-3,19,0,3,4,35
1495014839691877,108,127,-20,19,27,25,27,37
1495014839713122,-52,-50,-11,-13,-6,8,-8,52
1495014839713122,-28,-36,34,-3,-13,-18,-36,-107
1495014839714939,-24,49,-10,-5,8,-6,-13,-39
1495014839714939,14,-14,0,-2,-2,-8,20,18
1495014839727025,49,62,-24,31,-2,1,9,21
1495014839727025,18,-7,-7,-61,13,26,22,27
1495014839736034,3,-9,-6,28,-6,-2,-13,6
1495014839736034,-66,-94,14,-29,-10,1,-8,-44
1495014839751253,46,73,-16,58,-2,0,-20,-50
1495014839751253,-36,28,23,-21,0,-6,38,56
1495014839752038,-17,-62,-21,-93,-24,-28,-21,-58
1495014839752038,10,27,12,47,45,41,19,24
1495014839775100,-6,-64,5,-1,-22,-14,-10,73
1495014839775100,14,89,4,17,-7,-1,-1,-76
1495014839780125,5,-2,4,3,-17,-3,5,25
1495014839780125,-3,-34,0,-13,-14,-20,-19,21
1495014839787130,-6,23,-10,-36,29,18,9,-68
1495014839787130,37,59,-5,31,-15,-10,-4,59
1495014839796159,29,-53,11,8,20,9,-2,22
1495014839796159,-43,-57,10,-5,-8,-8,-18,-32
1495014839811206,-10,-104,24,-10,2,-2,10,71
1495014839811206,-17,62,-11,3,-10,-12,-7,-101
1495014839812199,26,96,-18,48,-6,1,11,22
1495014839812199,-9,-77,5,-58,45,9,5,25
1495014839833444,27,127,-12,-12,-28,0,-6,16
1495014839833444,51,-28,-13,9,10,21,6,37
1495014839835258,-79,-18,21,-60,-14,-17,-8,-89
1495014839835258,-25,1,-1,22,-34,-40,-23,-52
1495014839847293,12,49,-12,59,21,-2,-6,-1
1495014839847293,32,60,-6,-94,6,7,6,47
1495014839856336,-21,18,1,82,13,28,9,-10
1495014839856336,4,-70,23,16,-20,-12,-19,-4
1495014839871361,-2,-18,-2,-38,-5,-8,1,-8
1495014839871361,-21,-43,3,45,-19,-20,-2,18
1495014839872359,0,-27,6,-35,16,7,-6,-38
1495014839872359,34,127,-14,5,11,14,19,18
1495014839901441,-31,-88,21,1,1,11,-9,-5
1495014839901441,24,76,0,-5,0,-4,9,22
1495014839902440,-40,-128,9,-7,-2,4,11,-7
1495014839902440,41,127,-18,29,-18,-34,-14,-27
1495014839906505,15,102,-8,-43,24,34,17,42
1495014839906505,-6,-32,11,109,17,-8,-14,11
1495014839915626,-25,-19,-4,-8,5,23,10,32
1495014839915626,-11,37,7,68,-36,-8,2,4
1495014839930691,13,-53,-17,-89,-7,-29,4,-4
1495014839930691,-28,-25,23,-14,-10,2,8,27
1495014839932518,40,63,-3,47,-6,-4,-5,-14
1495014839932518,17,7,-20,-2,26,22,-23,6
1495014839953743,-34,-50,12,28,-19,-4,-14,-71
1495014839953743,64,1,2,-5,-6,-9,-2,-11
1495014839954578,-76,-26,5,-22,6,-3,9,56
1495014839954578,4,11,-22,-26,-19,-6,30,56
1495014839966819,24,39,4,16,17,8,1,13
1495014839966819,-3,-52,-18,-10,5,16,-1,-60
1495014839975632,25,20,11,9,5,8,-1,59
1495014839975632,4,51,-6,-29,7,12,10,-24
1495014839990684,-16,-62,1,18,-26,-10,0,-46
1495014839990684,-38,-86,10,44,10,3,-11,-27
1495014839992677,11,-29,6,12,-2,-13,-11,4
1495014839992677,-7,47,-2,-45,37,11,13,29
1495014840012739,31,67,-34,-17,-28,-9,-1,-7
1495014840012739,12,31,-13,-27,-42,-12,-6,8
1495014840014736,-53,-86,6,25,17,-6,-8,-35
1495014840014736,28,18,-2,-39,-14,-5,-7,-1
1495014840026776,-3,-53,18,18,38,15,21,54
1495014840026776,-15,79,-31,17,-4,-10,6,7
1495014840035800,19,32,19,-27,-12,-15,-13,14
1495014840035800,-9,-21,-14,2,-21,-12,-14,-60
1495014840057851,1,84,-5,-8,3,-9,-21,0
1495014840057851,-18,-68,-10,-10,7,16,9,45
1495014840059855,15,47,-16,4,13,23,14,7
1495014840059855,25,-21,18,33,-19,-16,9,5
1495014840072912,5,-8,-8,-12,1,-8,-8,-37
1495014840072912,-27,-46,16,48,-10,-25,-18,-9
1495014840074894,18,50,-25,-94,21,27,21,49
1495014840074894,-13,-18,13,52,-2,12,-7,-40
1495014840095952,77,111,-39,60,3,7,11,14
1495014840095952,-87,-70,43,-77,11,-4,3,31
1495014840096953,-2,-48,10,18,0,-7,-20,-69
1495014840096953,-17,-6,-1,30,-9,9,4,-8
1495014840109988,-4,42,10,-40,-2,-20,-20,24
1495014840109988,42,-3,18,-25,14,21,8,-16
1495014840117060,-44,2,23,-1,-35,-50,-22,-38
1495014840117060,-7,-3,1,-9,21,0,-5,31
1495014840133050,-32,-40,-4,18,-21,-15,0,-5
1495014840133050,127,127,-58,22,15,30,18,94
1495014840135054,-82,-111,59,-21,2,0,-21,-93
1495014840135054,-60,64,-1,-8,-25,-41,-13,-30
1495014840156113,19,99,-21,-3,10,0,8,29
1495014840156113,20,84,4,1,-14,-16,-2,-12
1495014840157114,92,54,-34,49,10,20,6,20
1495014840157114,2,-58,-16,-53,16,29,8,23
1495014840178375,-40,-21,0,-30,-16,4,4,-22
1495014840178375,-8,46,-22,37,-10,-15,-9,-9
1495014840180174,18,-62,52,73,36,26,31,80
1495014840180174,1,33,-16,36,-6,-5,-4,7
1495014840193211,-27,16,1,-25,-12,-3,-1,-65
1495014840193211,-56,-97,-2,0,-17,-24,-12,-55
1495014840194213,7,100,-40,-20,-18,-20,-1,25
1495014840194213,15,17,-3,-8,13,-1,2,22
1495014840215268,55,13,5,25,7,16,6,36
1495014840215268,-44,-8,24,-22,-8,-33,-29,-44
1495014840217275,13,8,-33,-10,-3,4,15,-1
1495014840217275,39,13,7,-10,9,29,11,-7
1495014840230308,74,83,-42,22,5,30,12,44
1495014840230308,-106,-115,60,-20,-39,-33,-14,33
1495014840237327,-16,124,-17,-46,29,-26,-40,-25
1495014840237327,5,-3,-26,17,-3,-2,9,30
1495014840253368,59,79,12,20,-9,-5,-6,-8
1495014840253368,-38,-54,19,22,1,19,18,27
1495014840254374,22,122,-10,-45,28,33,20,21
1495014840254374,-28,-4,-2,1,-27,-24,-7,-17
1495014840275428,-13,21,4,-32,31,28,8,17
1495014840275428,35,-45,-10,16,-19,2,3,-35
1495014840277434,-13,-2,-4,6,-30,-17,-11,-9
1495014840277434,-4,-64,7,-5,7,3,-14,-26
1495014840290468,-1,-41,9,-46,14,12,10,16
1495014840290468,-42,-30,25,-8,2,-10,10,18
1495014840296485,12,41,17,11,-8,-10,-4,-33
1495014840296485,-10,2,-15,-5,10,2,12,70
1495014840313555,-27,74,-23,22,-10,-18,-43,-54
1495014840313555,26,19,-3,-21,2,17,20,25
1495014840314532,6,-36,-2,-16,-10,-29,-40,-32
1495014840314532,-29,-49,30,7,-16,-12,3,10
1495014840334694,-68,-84,16,21,-10,-8,8,23
1495014840334694,85,108,-19,10,20,22,15,-34
1495014840343612,-10,-2,22,58,-26,-5,11,51
1495014840343612,-19,-92,13,-58,47,2,-12,-27
1495014840349741,-29,23,16,-26,7,0,-3,-12
1495014840349741,18,49,-8,29,-9,-13,1,-7
1495014840356644,6,4,-32,2,-29,5,12,25
1495014840356644,20,7,-2,1,-1,-1,-16,-6
1495014840372688,-15,-67,47,3,-23,-22,-15,-31
1495014840372688,-23,48,-27,-34,8,-3,0,-12
1495014840374691,20,-43,-10,3,1,16,11,57
1495014840374691,-36,-17,-9,9,-11,-10,4,-81
1495014840395748,30,-6,-23,22,13,26,33,82
1495014840395748,4,117,39,-30,-25,-53,-61,-23
1495014840396752,5,-63,-25,11,15,21,14,-57
1495014840396752,-11,-14,0,14,-7,-13,-15,25
1495014840409785,29,91,-19,-10,-24,5,15,25
1495014840409785,6,-6,-12,14,59,26,20,9
1495014840416806,-18,-116,17,38,12,-5,-3,29
1495014840416806,4,30,-11,-37,2,12,0,-5
1495014840432847,-26,40,13,17,-24,-18,-10,-26
1495014840432847,19,34,-33,-18,36,18,-7,15
1495014840434851,-4,-42,1,-17,-27,-10,-4,-9
1495014840434851,7,-57,-2,7,-7,-3,-1,-14
1495014840455908,-16,23,12,-10,-6,-13,-12,-8
1495014840455908,-34,-79,-21,12,-8,4,4,28
1495014840457913,17,28,15,-26,1,-3,9,-74
1495014840457913,12,47,-20,14,5,-2,16,30
1495014840469945,1,-2,-2,-2,6,-2,2,31
1495014840469945,13,9,0,-5,-14,-14,-16,-84
1495014840476964,-26,-63,-19,5,5,8,-8,8
1495014840476964,-10,-36,19,-2,-9,8,4,-11
1495014840493005,4,-49,-1,11,9,0,-2,-8
1495014840493005,10,40,-17,7,-14,1,20,30
1495014840495013,21,58,-4,8,5,2,-9,18
1495014840495013,22,17,17,-23,25,23,11,6
1495014840516075,-54,-128,18,-2,-3,-19,-19,-17
1495014840516075,-16,-4,-3,-7,-17,-9,-2,-24
1495014840517071,15,54,1,-9,-5,0,0,15
1495014840517071,2,47,-19,7,-14,-9,-11,-3
1495014840531363,-13,-47,10,1,14,7,1,-18
1495014840531363,30,40,15,-11,-11,-13,-3,14
1495014840537456,-7,-49,2,5,-5,-10,7,25
1495014840537456,-12,110,-17,24,9,14,-19,-24
1495014840553505,42,-128,8,-13,-4,10,13,19
1495014840553505,-35,63,-15,0,-7,-15,3,-22
1495014840555171,14,93,-9,-4,7,3,-11,-9
1495014840555171,4,22,-5,1,-4,-10,4,3
1495014840576457,-10,39,-4,0,-5,7,10,-14
1495014840576457,25,37,-16,17,-9,5,-6,22
1495014840577232,-11,-84,30,-12,26,27,10,17
1495014840577232,-8,-18,-25,0,-5,-3,0,11
1495014840589583,-5,6,3,2,0,-6,-10,-31
1495014840589583,-5,-37,-19,-3,-13,-9,13,12
1495014840598287,-7,44,-8,7,-8,2,-2,-2
1495014840598287,29,-5,-2,2,-1,-8,-8,-12
1495014840613496,6,36,3,-7,-6,0,1,15
1495014840613496,-26,-111,16,-17,6,-8,-9,-9
1495014840614670,-11,29,-13,-5,-9,-5,-6,3
1495014840614670,22,23,-20,-4,-1,-7,-5,23
1495014840636442,-21,64,1,0,-4,-9,-22,-44
1495014840636442,13,22,13,-8,-4,4,15,7
1495014840637395,7,-14,6,-3,-4,-7,-5,-19
1495014840637395,-21,-95,2,8,-8,-1,-4,14
1495014840649775,-16,20,-8,0,0,-8,-11,15
1495014840649775,-12,-19,-8,10,5,-4,-10,-39
1495014840658447,19,18,4,4,-3,6,1,20
1495014840658447,8,69,-18,-31,1,5,3,-9
1495014840673636,5,-23,2,21,-4,-6,-1,11
1495014840673636,2,2,-6,-37,-1,-10,-4,9
1495014840674490,4,69,-16,60,24,15,5,0
1495014840674490,-37,-119,44,-50,-16,9,5,-11
1495014840695716,-9,15,-3,8,-3,-6,4,7
1495014840695716,4,12,-6,1,-7,-3,0,3
1495014840697552,3,42,-9,-9,-25,-22,-18,-24
1495014840697552,9,17,-7,9,4,0,5,13
1495014840709724,11,-23,8,-6,7,12,16,5
1495014840709724,9,38,14,2,-6,-11,-21,-17
1495014840718608,-8,-31,6,-20,2,2,15,23
1495014840718608,-17,4,6,22,-3,-7,-17,-10
1495014840733883,-11,-74,7,-19,-11,-17,-12,2
1495014840733883,4,20,-14,9,14,26,35,-20
1495014840735652,7,39,2,-9,-1,5,12,-7
1495014840735652,15,37,-20,6,-8,-9,-1,-3
1495014840755972,17,102,-11,5,2,6,-3,4
1495014840755972,-17,-61,12,1,10,8,-11,30
1495014840756710,-42,-30,12,-16,-6,-11,-8,-17
1495014840756710,4,91,-10,22,-1,-2,4,-9
1495014840769949,10,14,4,-12,2,-5,-4,-2
1495014840769949,8,33,-13,9,3,3,1,9
1495014840777978,-1,2,-8,-14,-23,-12,0,0
1495014840777978,24,-8,12,29,43,27,4,1
1495014840793039,0,1,7,-33,2,0,0,2
1495014840793039,-25,-108,-6,-13,-9,-3,-9,-3
1495014840794815,-9,5,16,7,-16,-17,-2,11
1495014840794815,-9,6,-6,-7,-10,-10,2,-27
1495014840815870,5,16,-3,3,3,6,5,-10
1495014840815870,28,35,-7,8,1,-1,3,14
1495014840816869,-29,-45,-4,-18,2,2,-1,-2
1495014840816869,0,81,-26,5,-8,-7,-4,4
1495014840829905,-21,-111,19,0,-2,-3,5,-2
1495014840829905,-3,-13,-10,-4,-5,-10,-9,-11
1495014840838133,19,36,-17,-1,6,6,-2,-18
1495014840838133,-3,3,-1,-1,-7,0,-2,1
1495014840853182,-7,8,-13,17,-3,-8,0,-5
1495014840853182,-4,11,-11,-24,4,8,6,17
1495014840854972,0,-5,-1,3,1,2,-5,-1
1495014840854972,0,-30,-3,-1,-6,-2,0,-1
1495014840876223,-2,-21,4,2,0,-1,0,1
1495014840876223,5,16,-13,12,-15,-11,-1,1
1495014840877032,19,55,4,3,41,14,-3,-2
1495014840877032,3,15,-2,7,-18,-1,-5,5
1495014840889270,-55,-88,13,-8,-13,-10,-8,-10
1495014840889270,-3,84,-6,1,1,-9,-27,-41
1495014840898093,14,10,-7,-2,-10,2,47,49
1495014840898093,9,12,-10,-2,1,-3,12,-1
1495014840913304,12,38,3,-7,1,3,-6,-6
1495014840913304,-4,-35,-7,12,6,-1,-13,-6
1495014840915133,-11,-55,2,-2,-6,-3,-25,-19
1495014840915133,-8,-38,-7,-7,3,-1,-6,9
1495014840936188,10,26,0,-2,-4,2,14,7
1495014840936188,-3,3,-17,-1,3,-1,4,-1
1495014840937194,11,11,-1,-2,-3,-2,-6,2
1495014840937194,-12,-38,-5,5,4,5,0,-4
1495014840949438,1,4,2,-4,-3,-6,-11,-13
1495014840949438,-1,16,-7,5,4,1,11,15
1495014840958252,1,1,10,-1,1,3,-10,-8
1495014840958252,-9,-22,-4,0,1,-2,-8,-15
1495014840973296,10,20,-6,-2,0,1,17,20
1495014840973296,-2,-6,-4,-10,0,0,24,6
1495014840974292,-2,-14,-6,-5,-14,-4,-11,2
1495014840974292,-4,-12,5,-2,-1,-1,-6,-16
1495014840996348,2,14,-12,2,0,-2,-15,-11
1495014840996348,0,-12,7,-1,2,4,8,25
1495014840997353,-2,1,-4,-3,-7,-5,-1,-12
1495014840997353,1,-3,-6,8,3,4,1,5
1495014841018576,0,5,1,-15,-10,-4,9,-5
1495014841018576,-6,-6,-9,-7,4,0,-8,0
1495014841019410,2,10,0,7,0,-3,-8,-5
1495014841019410,-5,-22,5,2,-3,-4,-6,2
1495014841033629,4,5,8,-2,-3,-2,4,3
1495014841033629,-4,4,-1,3,-3,0,-4,-8
1495014841034450,4,-6,3,-4,0,-1,3,6
1495014841034450,-7,-7,6,-5,-2,-2,-4,-3
1495014841055703,-2,11,-10,-2,-1,-4,0,-6
1495014841055703,1,3,7,2,3,4,4,5
1495014841057513,0,-4,-3,1,1,1,-7,-6
1495014841057513,1,-9,4,0,-1,2,3,4
1495014841078738,0,4,3,-6,-3,-3,-4,-1
1495014841078738,4,8,-2,6,2,3,-1,-1
1495014841079572,-2,11,7,1,5,4,10,3
1495014841079572,-1,-10,5,-7,0,3,-2,-4
1495014841093607,2,6,3,4,-2,-7,-2,0
1495014841093607,-2,1,-5,25,0,-6,-5,-4
1495014841094611,1,-4,5,-53,0,4,2,0
1495014841094611,0,10,1,7,-3,-2,-2,-1
1495014841117672,-1,-16,3,1,-2,0,-1,1
1495014841117672,-4,-3,3,1,-2,-1,-4,-3
1495014841118674,-4,-8,-4,10,-1,-2,0,-3
1495014841118674,3,11,3,-6,-2,-3,-3,-1
1495014841138770,-4,-7,3,-1,3,2,0,0
1495014841138770,-2,-6,1,-4,1,-3,6,-1
1495014841139732,2,6,-1,8,-5,4,-6,-3
1495014841139732,1,-5,-3,-8,1,5,17,5
1495014841151765,4,3,7,4,-4,-3,-8,-3
1495014841151765,-3,5,-6,-8,0,-2,3,4
1495014841159983,-8,7,0,7,-1,-5,1,-6
1495014841159983,-4,-27,6,5,7,5,-8,-2
1495014841174830,-3,-15,7,-6,-6,-4,0,-4
1495014841174830,2,5,-6,-3,-1,1,1,-2
1495014841175836,1,10,0,4,-5,-2,5,4
1495014841175836,-1,12,0,-5,-1,-1,-6,-3
1495014841198027,-1,2,3,-1,-1,-5,1,1
1495014841198027,0,-3,-5,-3,1,4,-6,-1
1495014841198027,0,-1,-8,11,-9,-9,-4,-2
1495014841198027,-7,-2,0,-13,6,6,-2,0
1495014841212066,-4,-6,1,-14,-5,-4,-2,-1
1495014841212066,-1,-10,-8,12,5,0,-5,-4
1495014841220130,-1,-1,-4,-11,-10,-5,-5,-1
1495014841220130,-1,-5,-4,4,2,-3,-4,-4
1495014841235168,2,9,4,0,1,-5,-7,-2
1495014841235168,-3,-2,-5,-6,-2,0,14,1
1495014841236029,-3,-12,-4,5,3,-1,-22,-2
1495014841236029,3,5,-1,-2,-3,2,2,-4
1495014841257052,-2,0,-1,-4,-2,-6,-2,-1
1495014841257052,1,0,-8,-2,-3,-4,-6,-2
1495014841258049,-1,-5,0,7,9,6,1,-1
1495014841258049,-6,-13,-4,-1,-1,3,-5,-4
1495014841273084,0,11,-2,3,-1,1,1,1
1495014841273084,-1,-17,2,-7,-5,-2,7,-2
1495014841273084,-3,10,-5,-8,-5,-6,-2,0
1495014841273084,-1,-1,2,6,1,2,-1,0
1495014841295351,0,-2,0,-5,-2,0,5,2
1495014841295351,-3,-1,-4,-2,-3,-2,-13,-2
1495014841296146,6,10,3,7,2,-1,8,0
1495014841296146,-5,-15,-4,-4,1,-2,-5,0
1495014841317414,-5,-4,2,0,-7,-4,-1,-3
1495014841317414,3,6,-2,1,-1,3,0,1
1495014841318205,-3,-7,0,-6,-1,2,-1,-1
1495014841318205,9,23,-3,8,-2,-1,-6,-1
1495014841332451,0,0,3,8,3,-2,14,0
1495014841332451,-4,-10,-1,-21,0,6,-8,-3
1495014841333253,4,-3,-4,5,-2,-3,0,-3
1495014841333253,-3,-4,-1,1,-2,2,-5,0
1495014841355555,0,8,4,-4,-1,1,0,1
1495014841355555,-2,-18,4,9,3,-1,-2,-3
1495014841355555,-1,-5,-4,-4,-1,-1,13,-1
1495014841355555,-1,-2,6,-1,1,2,-7,0
1495014841377611,0,2,1,0,-2,-5,-1,-2
1495014841377611,2,6,-3,2,-1,-3,-1,1
1495014841378376,-3,-2,5,1,5,3,-3,0
1495014841378376,10,17,0,0,-3,1,1,-2
1495014841391398,-10,-53,1,-3,-4,-4,-2,-1
1495014841391398,-11,8,-4,0,-2,-1,-2,-1
1495014841400635,-4,-7,-6,5,-4,-9,1,-2
1495014841400635,9,14,-6,6,-2,-3,-2,-3
1495014841415530,6,15,2,-18,3,10,-3,3
1495014841415530,-9,-1,-8,8,-1,1,-2,-1
1495014841415530,-5,-6,-3,-5,-4,-2,-10,-3
1495014841415530,-2,-4,2,7,-8,-9,-3,-2
1495014841437774,8,8,4,-5,-7,-5,15,1
1495014841437774,-1,-5,-2,-1,2,1,-11,-4
1495014841438534,-3,3,-2,4,-1,0,-3,-3
1495014841438534,-1,-15,-1,-2,2,0,-8,-1
1495014841452771,-9,9,-1,-14,-1,-2,2,1
1495014841452771,-2,-15,-1,2,1,-2,1,-3
1495014841453575,2,3,0,2,3,2,4,-2
1495014841453575,-3,-15,6,-3,2,4,6,0
1495014841475623,-2,14,-8,3,-2,-9,-5,-3
1495014841475623,5,2,0,4,-1,2,4,4
1495014841475623,-2,5,-7,12,-4,-2,-5,-3
1495014841475623,-6,-12,6,-37,4,4,0,0
1495014841497725,19,12,6,4,-5,-3,0,-1
1495014841497725,-13,-8,1,-9,-7,-8,-4,-4
1495014841498683,-4,-27,7,0,5,6,0,2
1495014841498683,-4,11,-5,8,-5,0,1,-3
1495014841512721,1,12,3,-6,-3,-4,-4,-1
1495014841512721,25,23,-1,-1,-5,-1,-4,0
1495014841513725,-9,6,1,-12,3,2,6,10
1495014841513725,-19,-16,0,5,-1,-5,-4,8
1495014841534794,-2,-13,3,-8,-4,-3,-10,-27
1495014841534794,-5,-21,2,7,-1,-2,3,-21
1495014841535783,8,17,9,-5,-3,-4,-3,-2
1495014841535783,9,11,-4,1,-6,-1,0,8
1495014841556850,0,16,-1,2,2,-5,0,12
1495014841556850,31,55,0,9,9,9,3,14
1495014841565040,-52,-80,0,-12,-11,2,-3,-10
1495014841565040,-11,-35,7,5,-4,-13,-8,-32
1495014841572985,-13,-9,-3,8,1,2,0,4
1495014841572985,2,7,-8,-6,2,1,1,4
1495014841572985,25,45,-1,1,1,1,2,10
1495014841572985,5,12,-5,7,-1,-3,-3,0
1495014841595207,-5,-12,-1,-7,-1,-2,2,-1
1495014841595207,4,2,-4,18,-4,0,-2,3
1495014841595955,-2,-4,-6,-25,5,-6,-3,-3
1495014841595955,-9,-14,4,-18,-1,5,0,-5
1495014841618002,3,3,1,6,3,-1,1,0
1495014841618002,9,15,-4,18,3,3,5,5
1495014841618002,9,30,2,-26,-10,6,1,25
1495014841618002,-14,-3,-9,19,9,-1,-2,15
1495014841632250,-21,-75,9,-5,-15,-2,-1,-46
1495014841632250,-21,-23,5,1,-6,-9,-14,-24
1495014841640072,30,-13,-7,7,2,-3,-2,-5
1495014841640072,-29,12,-2,-5,-13,-9,3,20
1495014841655357,51,60,-2,2,4,6,8,51
1495014841655357,-37,14,-8,-12,7,2,-3,-28
1495014841656104,10,-4,1,15,-12,-3,3,-17
1495014841656104,6,-25,-7,-13,-1,-4,-1,9
1495014841678173,-14,15,-2,3,5,-7,-4,-14
1495014841678173,6,-13,-7,-18,-4,0,8,15
1495014841678173,23,76,-7,12,-2,0,-3,19
1495014841678173,5,-22,4,-5,10,8,0,-18
1495014841692198,-4,-42,6,21,0,-6,-9,-39
1495014841692198,9,42,-16,21,-11,6,9,12
1495014841700266,-35,-71,2,5,46,1,-5,5
1495014841700266,31,38,4,7,-9,5,0,9
1495014841715467,-18,88,1,-3,-13,-8,4,-12
1495014841715467,-19,-110,4,-19,-1,-6,-2,19
1495014841716267,37,83,-13,32,-14,-5,0,-9
1495014841716267,3,86,-2,-18,6,8,-3,38
1495014841737509,-44,-20,7,-24,9,0,-6,-23
1495014841737509,-8,-60,11,-3,-23,-32,-17,-30
1495014841738324,-33,-51,2,-13,5,7,2,-15
1495014841738324,35,64,-9,11,11,7,4,28
1495014841752408,11,8,-5,-8,-13,4,4,31
1495014841752408,-3,41,-5,1,13,2,-4,-18
1495014841760529,-2,-10,-4,14,-15,-1,-7,10
1495014841760529,2,-42,11,-14,2,5,0,-37
1495014841775579,9,-14,1,3,-13,-11,6,57
1495014841775579,33,45,-2,27,8,15,3,25
1495014841775579,-66,-46,7,-67,15,-3,-11,-24
1495014841775579,-11,-114,5,31,-26,-12,-1,-18
1495014841797670,-14,-35,-4,13,-16,-23,1,34
1495014841797670,0,48,2,-43,13,11,-7,-17
1495014841798494,32,97,-2,-18,-19,-8,-4,-53
1495014841798494,21,35,-7,14,17,16,6,51
1495014841822546,1,-44,4,8,11,20,9,4
1495014841822546,-19,5,6,-8,-10,-13,-16,1
1495014841822546,14,-15,-8,15,-1,-5,-1,21
1495014841822546,-5,-47,23,-15,-1,-9,3,-55
1495014841843697,45,87,-16,2,3,-1,3,32
1495014841843697,19,92,-15,19,13,24,23,27
1495014841843697,-62,-97,14,-31,-10,3,7,26
1495014841843697,26,39,-3,11,-24,-28,-27,21
1495014841857644,-42,-102,9,7,39,12,-11,-84
1495014841857644,26,45,-3,-11,-23,-11,0,31
1495014841858642,-34,9,-4,18,-16,-14,-19,-64
1495014841858642,-19,-2,8,10,-1,-2,-20,-29
1495014841871878,52,16,-16,-60,-37,-17,32,12
1495014841871878,-48,-22,-2,47,34,13,6,-8
1495014841879711,60,60,13,16,10,7,14,74
1495014841879711,-10,25,-5,6,2,5,2,34
1495014841894934,-3,-44,28,-8,0,-1,-22,-117
1495014841894934,-17,42,-11,-10,-8,0,-2,18
1495014841895741,-8,-85,16,-7,-15,-19,2,37
1495014841895741,-7,74,-18,-5,2,-1,-9,12
1495014841918012,5,71,2,18,11,10,7,-10
1495014841918012,35,-42,-8,-17,0,10,19,25
1495014841918809,17,83,-5,15,1,2,-20,0
1495014841918809,-10,-90,32,-30,-15,-16,-23,-27
1495014841931945,3,-97,-7,-10,-7,-11,-1,22
1495014841931945,-41,-1,-3,-14,-12,-12,-6,-41
1495014841939868,2,18,-27,12,5,10,18,31
1495014841939868,21,41,-9,15,-6,14,19,-29
1495014841955151,10,33,9,-19,-2,13,5,25
1495014841955151,5,-71,10,1,41,-8,-19,-5
1495014841955944,5,-1,-9,-28,-22,12,12,6
1495014841955944,-17,5,2,12,-13,-1,-6,-53
1495014841978005,6,28,-6,-9,-12,-8,-8,10
1495014841978005,-14,-61,-1,41,-2,1,7,11
1495014841978005,-48,-42,21,-23,-6,-21,-8,-5
1495014841978005,66,45,-29,-2,42,22,9,26
1495014842001267,-37,2,5,4,-19,-4,15,35
1495014842001267,-76,-67,9,-28,-11,-17,-20,-73
1495014842001267,18,68,-6,25,2,-17,-12,-49
1495014842001267,-22,51,-9,-13,6,21,24,27
1495014842015114,74,127,-7,14,14,7,13,70
1495014842015114,-34,-94,13,-3,-44,-24,-19,0
1495014842016098,44,-19,32,-17,49,16,-7,64
1495014842016098,-85,-47,12,-11,-14,-21,-19,-112
1495014842038119,-35,-116,10,16,-16,-17,-8,68
1495014842038119,54,82,-20,-25,-14,2,12,58
1495014842038119,3,16,-20,50,40,20,5,-3
1495014842038119,11,-4,12,19,-7,-2,-2,56
1495014842061354,9,64,9,-60,10,11,-5,-18
1495014842061354,-1,-58,8,-12,-7,2,3,-40
1495014842061354,-3,-2,-18,3,-9,-13,-6,-39
1495014842061354,109,-39,-7,16,1,17,17,81
1495014842075351,-115,-88,47,-14,-21,-41,-23,-127
1495014842075351,38,0,-18,2,4,-6,-1,5
1495014842076222,-12,76,20,1,-8,-7,8,-1
1495014842076222,20,-48,-2,-12,10,7,-12,0
1495014842098456,27,106,-12,18,-8,-6,-6,12
1495014842098456,-31,-44,-11,-16,5,11,7,16
1495014842099284,27,14,8,25,-24,-6,3,8
1495014842099284,-26,-57,5,-60,0,13,15,19
1495014842121341,-16,21,5,32,-13,-24,-20,-10
1495014842121341,-19,10,8,-13,1,-4,-9,-20
1495014842121341,-1,12,-31,31,-13,10,7,-9
1495014842121341,8,83,-20,10,-25,-4,18,73
1495014842135594,20,24,40,-41,45,14,-19,-54
1495014842135594,-18,-35,23,54,5,-6,2,-24
1495014842135594,-39,30,1,-37,-32,-12,4,13
1495014842135594,-70,-79,35,12,-22,-33,-18,-45
1495014842158560,26,66,-36,-12,0,-4,9,36
1495014842158560,38,126,-13,3,6,12,6,32
1495014842159442,25,-82,17,-17,0,1,-2,29
1495014842159442,-6,-45,10,-9,13,5,-17,-52
1495014842180612,34,32,-13,24,-2,14,20,-30
1495014842180612,-34,-56,22,-22,-6,-11,-21,-16
1495014842181503,-20,101,-32,6,4,18,8,-6
1495014842181503,-28,-74,30,10,-10,-18,11,41
1495014842195559,-53,58,3,-9,-1,-9,-12,98
1495014842195559,21,-2,6,-35,-9,-10,-7,-91
1495014842195559,12,0,-22,1,17,1,9,-54
1495014842195559,-23,-63,-1,22,-27,-17,-12,-12
1495014842218720,19,-27,-23,-36,-3,0,16,8
1495014842218720,28,77,-14,72,32,39,19,75
1495014842218720,-5,-48,25,-29,-7,-2,-20,-8
1495014842218720,10,73,-48,-23,11,15,11,-14
1495014842240668,6,59,7,41,-16,-5,1,7
1495014842240668,15,-3,-12,-20,-24,0,13,29
1495014842241669,-55,-128,60,-6,-10,-20,-20,-90
1495014842241669,-35,127,-23,17,8,-3,0,-1
1495014842255710,89,45,2,17,14,-1,-2,44
1495014842255710,-57,-20,-4,-13,-2,-16,3,22
1495014842255710,21,-5,-24,21,3,3,-12,0
1495014842255710,21,1,19,-24,4,-5,-6,-48
1495014842278759,-39,-19,-27,8,-9,9,2,10
1495014842278759,85,62,-1,1,16,20,5,-69
1495014842278759,-51,-96,0,6,-19,0,11,73
1495014842278759,-38,-43,20,-65,11,-15,-5,3
1495014842300823,11,52,-13,-56,11,-6,9,39
1495014842300823,13,115,-17,45,-15,-4,3,-9
1495014842301820,-7,-37,-1,2,7,5,-16,5
1495014842301820,61,117,13,18,50,30,6,-15
1495014842315065,-58,-128,3,-52,-19,2,0,-3
1495014842315065,-23,-23,4,-12,-12,-17,-6,37
1495014842315868,31,59,-50,-6,1,6,7,14
1495014842315868,3,39,-9,22,-13,0,10,4
1495014842337924,24,-42,23,34,5,-13,-32,-66
1495014842337924,-57,-70,-26,-28,4,11,3,3
1495014842338922,-16,37,27,-13,-14,-40,-30,1
1495014842338922,-19,47,-14,8,-4,-6,10,-45
1495014842361139,46,108,-34,29,13,29,28,37
1495014842361139,125,125,-10,58,-30,-23,-24,15
1495014842361983,-73,-77,42,-86,65,43,25,45
1495014842361983,-18,-47,-26,16,-18,-18,-9,-26
1495014842375070,-23,11,-9,4,-5,1,-2,-25
1495014842375070,-6,-61,-23,3,-3,2,4,24
1495014842376030,99,127,-33,15,-12,15,11,16
1495014842376030,-61,-74,28,-17,1,-21,-30,-7
1495014842399217,-36,-38,5,48,-2,-3,15,-4
1495014842399217,-13,19,19,-65,-2,-6,-3,37
1495014842400084,22,68,-11,14,6,-2,-13,-61
1495014842400084,32,30,-4,4,-16,10,5,12
1495014842421228,0,1,-18,34,-8,-4,6,19
1495014842421228,-20,1,33,-19,22,-2,-15,2
1495014842421228,16,-34,-8,21,-16,0,7,25
1495014842421228,-14,108,6,-7,-16,-12,-10,-56
1495014842435427,19,-53,13,-7,8,-3,-2,9
1495014842435427,-73,-63,43,7,2,-32,-43,-25
1495014842436179,39,119,-35,3,1,8,24,-36
1495014842436179,-1,-28,18,6,4,0,-3,18
1495014842458244,-21,57,-31,25,-36,-19,0,20
1495014842458244,19,-9,-20,-30,70,43,18,-11
1495014842459247,3,-54,12,46,-23,-5,5,38
1495014842459247,-4,-16,8,-70,-25,-23,-19,7
1495014842480336,7,9,-9,71,66,26,6,-34
1495014842480336,41,-6,-26,-2,-23,8,14,40
1495014842481299,-45,9,-16,-69,-3,-4,-15,-43
1495014842481299,24,-4,-2,3,-4,16,16,8
1495014842495549,-37,-70,3,-23,-20,-27,-15,-16
1495014842495549,13,35,-10,22,6,12,14,-4
1495014842496354,-21,53,1,24,11,-22,-28,41
1495014842496354,53,-34,2,4,6,21,23,-9
1495014842518606,2,40,-8,-40,-23,-21,-27,-32
1495014842518606,-61,-51,-3,0,-6,-2,11,24
1495014842519400,-5,-19,-2,-5,-22,-10,-11,-75
1495014842519400,20,-1,1,15,10,9,7,58
1495014842540464,-22,-31,7,-19,-2,-9,2,-7
1495014842540464,25,95,6,14,-1,11,4,12
1495014842541459,-15,-48,-19,0,6,11,7,7
1495014842541459,13,-4,5,10,25,-3,-6,1
1495014842563537,12,-1,-15,-40,1,10,11,44
1495014842563537,0,53,15,16,-18,1,0,-49
1495014842563537,26,16,-30,2,-9,8,7,-13
1495014842563537,-44,-82,62,14,-2,-8,-22,-9
1495014842578710,-27,-25,3,7,-20,-19,-3,-13
1495014842578710,-18,21,-5,-19,2,-3,5,33
1495014842578710,33,70,-26,24,13,12,14,3
1495014842578710,-12,13,-12,11,-7,9,-3,27
1495014842600864,30,-51,63,-25,-19,-36,-34,-91
1495014842600864,-15,-50,9,5,-4,-13,-9,-30
1495014842601631,20,47,4,22,24,20,20,65
1495014842601631,-19,16,-11,-4,-2,6,9,-40
1495014842614654,-22,-65,-12,-6,12,18,15,17
1495014842614654,16,-20,7,6,-20,-10,-7,4
1495014842622746,-3,17,-22,-56,6,-6,-10,-5
1495014842622746,-1,-11,41,36,28,6,-1,19
1495014842638729,3,16,-14,-21,-1,15,11,9
1495014842638729,12,11,2,3,-20,-16,-10,-26
1495014842638729,-11,-55,4,-2,-17,-13,-7,7
1495014842638729,26,62,-34,1,2,6,7,-4
1495014842660974,-9,93,23,19,5,11,-2,19
1495014842660974,-30,-101,17,-4,1,-7,0,-9
1495014842661788,-16,-36,13,-6,-14,-19,3,-17
1495014842661788,12,31,-11,-2,-3,-6,-5,14
1495014842674813,3,52,-23,16,4,-4,9,-8
1495014842674813,47,65,9,-13,6,15,-9,24
1495014842682887,-20,-62,10,25,-2,3,-3,-30
1495014842682887,-3,-17,-4,-20,-16,-13,-1,-12
1495014842698021,-3,-16,-8,1,6,3,-4,20
1495014842698021,-6,24,8,-4,2,0,-9,-6
1495014842698887,16,-19,-8,16,-16,-11,-14,6
1495014842698887,-11,7,9,-4,12,3,-3,15
1495014842721135,-30,-105,0,-10,-14,-9,-12,-31
1495014842721135,14,24,-23,-9,3,0,5,-6
1495014842721939,9,55,-24,18,-6,1,-10,-10
1495014842721939,13,127,-5,26,5,21,22,94
1495014842733974,-36,-93,39,-52,-7,-9,-5,-87
1495014842733974,-24,-51,-8,-6,-8,-14,1,-2
1495014842750025,3,77,-18,2,11,1,1,0
1495014842750025,7,46,-2,6,-4,-2,7,35
1495014842758059,33,6,-25,12,5,2,2,-12
1495014842758059,-10,6,-7,2,0,3,-6,-48
1495014842760041,-2,-58,6,-8,10,8,0,4
1495014842760041,-9,-24,-3,-16,-17,-8,-2,-5
1495014842781322,11,16,-24,17,13,7,7,45
1495014842781322,-9,-39,4,-9,-9,-8,-9,-5
1495014842782102,-11,-7,-17,6,9,6,-3,-3
1495014842782102,2,-24,14,-15,-26,-18,2,-25
1495014842794359,0,15,-19,14,2,-1,1,21
1495014842794359,29,112,-6,11,24,10,-10,-5
1495014842803166,-29,-70,22,-13,13,15,14,9
1495014842803166,-24,-80,16,-16,-19,-22,-11,-23
1495014842818411,11,66,-27,0,-9,-12,-12,4
1495014842818411,-18,19,7,10,2,11,26,10
1495014842820200,23,71,-18,11,-1,12,3,-13
1495014842820200,7,-27,15,-12,4,16,9,-1
1495014842840255,1,-74,-20,6,-9,-32,-14,14
1495014842840255,-5,2,-4,-2,-2,-1,-14,11
1495014842842260,-25,-38,15,-4,-1,-6,-9,-38
1495014842842260,-10,24,-7,4,5,-1,8,-11
1495014842854505,13,37,-8,7,8,13,2,11
1495014842854505,5,-1,6,-3,1,-3,4,2
1495014842863324,-2,-9,2,-2,1,3,-3,8
1495014842863324,-5,-26,-6,-3,-11,-13,-17,-17
1495014842878520,0,33,-9,-9,6,12,7,9
1495014842878520,3,-12,-3,-5,-9,-6,-3,-1
1495014842879358,2,-6,0,6,0,-2,1,6
1495014842879358,6,8,6,-10,-6,-13,-10,-10
1495014842900646,9,36,1,10,-1,10,10,8
1495014842900646,-5,4,-13,-20,3,6,0,-1
1495014842902420,13,-18,26,15,-1,2,-3,6
1495014842902420,-36,-60,-6,-26,-14,-16,-19,-9
1495014842923506,-8,15,6,6,2,5,5,-5
1495014842923506,8,26,7,8,-3,-4,-9,0
1495014842924476,32,63,-16,0,4,8,0,-3
1495014842924476,6,5,23,-5,-1,-3,-4,14
1495014842938747,-33,-83,10,4,-3,-10,-4,-4
1495014842938747,6,66,-19,-5,-1,-2,-2,-2
1495014842939519,-21,-111,16,-4,1,-6,-11,-7
1495014842939519,4,46,-7,3,0,2,2,-10
1495014842960827,10,26,0,0,4,5,-3,6
1495014842960827,2,-8,1,4,-1,0,6,3
1495014842962581,-3,-3,-6,-12,-3,1,-1,4
1495014842962581,4,6,2,2,0,-2,1,-2
1495014842983673,0,16,-7,5,-1,-1,-1,4
1495014842983673,-5,-35,17,0,0,-1,-3,-4
1495014842984641,0,24,-6,5,-6,-4,-5,1
1495014842984641,1,-11,-1,-25,-12,-12,0,-10
1495014842998678,1,10,-6,-17,13,2,-1,6
1495014842998678,-1,4,8,10,10,13,5,4
1495014842999680,-13,-44,4,-8,-9,-5,-4,-3
1495014842999680,-4,-6,6,4,-2,-5,-9,-9
1495014843028755,-2,11,-17,3,-8,-5,11,-2
1495014843028755,8,-3,9,-3,-5,-6,-16,-5
1495014843029762,-2,14,10,-4,4,-2,-1,11
1495014843029762,18,19,-8,-2,-6,-16,-21,6
1495014843043810,-25,-4,-4,5,1,9,17,-24
1495014843043810,-1,-23,0,-4,0,4,3,1
1495014843044799,1,7,-7,9,0,0,6,15
1495014843044799,10,22,-8,-3,-1,1,12,14
1495014843057831,7,9,15,5,0,-5,-19,3
1495014843057831,-15,-66,1,-4,-4,-2,0,1
1495014843059839,-7,13,-6,-2,-5,-7,-11,-18
1495014843059839,2,1,2,4,9,9,10,1
1495014843080896,10,24,-10,0,4,4,0,11
1495014843080896,-4,-6,-4,-3,-6,-3,3,-11
1495014843081897,4,3,11,-1,0,2,-7,1
1495014843081897,-10,-21,-25,-2,3,1,4,-9
1495014843103137,-5,-2,-9,5,0,6,0,-13
1495014843103137,3,-1,0,0,-1,1,6,29
1495014843104959,2,7,-2,1,1,-2,-2,-5
1495014843104959,-1,4,16,-3,2,4,8,-3
1495014843118145,-6,-24,-12,-3,-2,0,-8,0
1495014843118145,-2,-1,-12,0,0,-2,-6,-12
1495014843124014,2,12,-2,-2,-3,1,4,2
1495014843124014,-5,-7,5,8,-5,-5,1,-11
1495014843141053,-1,-4,-9,-6,5,3,-4,12
1495014843141053,4,6,3,4,-4,-5,-8,-1
1495014843142057,-7,2,-2,4,4,-2,0,-4
1495014843142057,-9,-7,1,1,-1,0,4,-9
1495014843163170,8,6,1,2,-4,1,-1,3
1495014843163170,-2,-1,-1,-4,-1,0,-1,-1
1495014843165119,-1,1,-3,0,0,1,-6,-5
